
  &&electric field in cartesian unit:  1.000000e-03  0.000000e+00  0.000000e+00 
  &&current at groud state:   -1.5023727654e-01   -1.5372318766e-01    1.4498571987e-09 nonzero due to kpoint sampling
  0.000000   -1.5034179779e-01   -1.5374742787e-01    6.8965921923e-11 
  0.200000   -1.5050041636e-01   -1.5386433372e-01   -1.4759119084e-09 
  0.400000   -1.5063497533e-01   -1.5396928419e-01   -2.5659783051e-09 
  0.600000   -1.5073403177e-01   -1.5405296084e-01   -3.2252242688e-09 
  0.800000   -1.5079001533e-01   -1.5410832809e-01   -3.5642600255e-09 
  1.000000   -1.5080003814e-01   -1.5413140435e-01   -3.7177992817e-09 
  1.200000   -1.5076615936e-01   -1.5412168848e-01   -3.8374320468e-09 
  1.400000   -1.5069509285e-01   -1.5408219521e-01   -4.0619097733e-09 
  1.600000   -1.5059739441e-01   -1.5401909555e-01   -4.4882959295e-09 
  1.800000   -1.5048622421e-01   -1.5394100305e-01   -5.1519940744e-09 
  2.000000   -1.5037582887e-01   -1.5385798783e-01   -6.0157465925e-09 
  2.200000   -1.5027991874e-01   -1.5378043130e-01   -6.9733118806e-09 
  2.400000   -1.5021012713e-01   -1.5371785313e-01   -7.8652235857e-09 
  2.600000   -1.5017472746e-01   -1.5367784456e-01   -8.5027189189e-09 
  2.800000   -1.5017775244e-01   -1.5366522985e-01   -8.7010120934e-09 
  3.000000   -1.5021861158e-01   -1.5368155054e-01   -8.3132420738e-09 
  3.200000   -1.5029224376e-01   -1.5372492903e-01   -7.2698819220e-09 
  3.400000   -1.5038977871e-01   -1.5379032369e-01   -5.5688383236e-09 
  3.600000   -1.5049962228e-01   -1.5387014175e-01   -3.2894516152e-09 
  3.800000   -1.5060883187e-01   -1.5395513487e-01   -5.9042011065e-10 
  4.000000   -1.5070461732e-01   -1.5403547026e-01    2.2912962286e-09 
  4.200000   -1.5077579085e-01   -1.5410185132e-01    5.0790197104e-09 
  4.400000   -1.5081399977e-01   -1.5414655771e-01    7.5030484855e-09 
  4.600000   -1.5081460514e-01   -1.5416428694e-01    9.3542829637e-09 
  4.800000   -1.5077711431e-01   -1.5415270456e-01    1.0513018720e-08 
  5.000000   -1.5070513007e-01   -1.5411264651e-01    1.0956928475e-08 
  5.200000   -1.5060583665e-01   -1.5404795843e-01    1.0752750362e-08 
  5.400000   -1.5048909605e-01   -1.5396499991e-01    1.0048235331e-08 
  5.600000   -1.5036627115e-01   -1.5387187926e-01    9.0707089747e-09 
  5.800000   -1.5024892008e-01   -1.5377751416e-01    8.0818687246e-09 
  6.000000   -1.5014751605e-01   -1.5369063078e-01    7.3348002408e-09 
  6.200000   -1.5007033859e-01   -1.5361881739e-01    7.0318072560e-09 
  6.400000   -1.5002265706e-01   -1.5356773892e-01    7.2869031766e-09 
  6.600000   -1.5000628863e-01   -1.5354059633e-01    8.1019601803e-09 
  6.800000   -1.5001956704e-01   -1.5353788381e-01    9.3573249838e-09 
  7.000000   -1.5005770888e-01   -1.5355746049e-01    1.0834314328e-08 
  7.200000   -1.5011351889e-01   -1.5359491645e-01    1.2215975445e-08 
  7.400000   -1.5017833837e-01   -1.5364417924e-01    1.3129363116e-08 
  7.600000   -1.5024311633e-01   -1.5369828156e-01    1.3224270651e-08 
  7.800000   -1.5029947313e-01   -1.5375019467e-01    1.2214588271e-08 
  8.000000   -1.5034063243e-01   -1.5379362829e-01    9.9294492431e-09 
  8.200000   -1.5036211779e-01   -1.5382370529e-01    6.3511837306e-09 
  8.400000   -1.5036214201e-01   -1.5383743825e-01    1.6218642500e-09 
  8.600000   -1.5034165736e-01   -1.5383396090e-01   -3.9367397764e-09 
  8.800000   -1.5030407631e-01   -1.5381449889e-01   -9.8502839527e-09 
  9.000000   -1.5025471268e-01   -1.5378209617e-01   -1.5567567480e-08 
  9.200000   -1.5020002429e-01   -1.5374114203e-01   -2.0514155380e-08 
  9.400000   -1.5014676000e-01   -1.5369676612e-01   -2.4165829866e-08 
  9.600000   -1.5010112081e-01   -1.5365418198e-01   -2.6120238228e-08 
  9.800000   -1.5006803839e-01   -1.5361806212e-01   -2.6153795766e-08 
  10.000000   -1.5005065491e-01   -1.5359201995e-01   -2.4257884716e-08 
  10.200000   -1.5005005847e-01   -1.5357825659e-01   -2.0651118289e-08 
  10.400000   -1.5006529320e-01   -1.5357740677e-01   -1.5756310156e-08 
  10.600000   -1.5009362686e-01   -1.5358859097e-01   -1.0151560543e-08 
  10.800000   -1.5013102618e-01   -1.5360965367e-01   -4.5015241845e-09 
  11.000000   -1.5017276540e-01   -1.5363754454e-01    5.3019703873e-10 
  11.200000   -1.5021408036e-01   -1.5366878315e-01    4.3714689930e-09 
  11.400000   -1.5025077854e-01   -1.5369993987e-01    6.6045552996e-09 
  11.600000   -1.5027972695e-01   -1.5372806731e-01    7.0375917307e-09 
  11.800000   -1.5029915992e-01   -1.5375102765e-01    5.7623217367e-09 
  12.000000   -1.5030877703e-01   -1.5376767798e-01    3.1328500316e-09 
  12.200000   -1.5030963126e-01   -1.5377789832e-01   -3.1058788854e-10 
  12.400000   -1.5030383668e-01   -1.5378246960e-01   -3.8871099984e-09 
  12.600000   -1.5029414794e-01   -1.5378282981e-01   -6.8669320581e-09 
  12.800000   -1.5028347928e-01   -1.5378075263e-01   -8.5761185223e-09 
  13.000000   -1.5027443538e-01   -1.5377800166e-01   -8.4750388490e-09 
  13.200000   -1.5026892158e-01   -1.5377601461e-01   -6.2478971504e-09 
  13.400000   -1.5026788611e-01   -1.5377566502e-01   -1.8583285623e-09 
  13.600000   -1.5027122641e-01   -1.5377713546e-01    4.4336697606e-09 
  13.800000   -1.5027786646e-01   -1.5377991870e-01    1.2089844378e-08 
  14.000000   -1.5028598755e-01   -1.5378294302e-01    2.0349816679e-08 
  14.200000   -1.5029337288e-01   -1.5378479940e-01    2.8322283941e-08 
  14.400000   -1.5029781137e-01   -1.5378403254e-01    3.5092177870e-08 
  14.600000   -1.5029749800e-01   -1.5377944860e-01    3.9837965230e-08 
  14.800000   -1.5029136980e-01   -1.5377038929e-01    4.1941442951e-08 
  15.000000   -1.5027932617e-01   -1.5375692704e-01    4.1069604883e-08 
  15.200000   -1.5026229934e-01   -1.5373994701e-01    3.7227286863e-08 
  15.400000   -1.5024216256e-01   -1.5372109815e-01    3.0767034363e-08 
  15.600000   -1.5022148687e-01   -1.5370261489e-01    2.2351311334e-08 
  15.800000   -1.5020317976e-01   -1.5368703010e-01    1.2863593655e-08 
  16.000000   -1.5019005627e-01   -1.5367681732e-01    3.3277707878e-09 
  16.200000   -1.5018440418e-01   -1.5367401170e-01   -5.2277926823e-09 
  16.400000   -1.5018760690e-01   -1.5367986474e-01   -1.1920620331e-08 
  16.600000   -1.5019988115e-01   -1.5369458532e-01   -1.6117976307e-08 
  16.800000   -1.5022017168e-01   -1.5371720955e-01   -1.7520706930e-08 
  17.000000   -1.5024622401e-01   -1.5374562599e-01   -1.6203609646e-08 
  17.200000   -1.5027483179e-01   -1.5377676201e-01   -1.2607252021e-08 
  17.400000   -1.5030223046e-01   -1.5380691496e-01   -7.4798626395e-09 
  17.600000   -1.5032458751e-01   -1.5383219124e-01   -1.7675980377e-09 
  17.800000   -1.5033852480e-01   -1.5384899970e-01    3.4867447573e-09 
  18.000000   -1.5034160176e-01   -1.5385453601e-01    7.2938002256e-09 
  18.200000   -1.5033269166e-01   -1.5384719333e-01    8.8708872728e-09 
  18.400000   -1.5031219589e-01   -1.5382684134e-01    7.7445677550e-09 
  18.600000   -1.5028206176e-01   -1.5379493094e-01    3.8207812523e-09 
  18.800000   -1.5024559492e-01   -1.5375440317e-01   -2.5929680936e-09 
  19.000000   -1.5020708525e-01   -1.5370940564e-01   -1.0817410347e-08 
  19.200000   -1.5017129011e-01   -1.5366484464e-01   -1.9882319769e-08 
  19.400000   -1.5014283920e-01   -1.5362582332e-01   -2.8649023098e-08 
  19.600000   -1.5012563666e-01   -1.5359703253e-01   -3.5955805307e-08 
  19.800000   -1.5012233819e-01   -1.5358216877e-01   -4.0782547608e-08 
  20.000000   -1.5013397239e-01   -1.5358345238e-01   -4.2360126137e-08 
  20.200000   -1.5015975827e-01   -1.5360130876e-01   -4.0281226884e-08 
  20.400000   -1.5019714611e-01   -1.5363425610e-01   -3.4583965374e-08 
  20.600000   -1.5024208115e-01   -1.5367901907e-01   -2.5743020821e-08 
  20.800000   -1.5028946072e-01   -1.5373086017e-01   -1.4619997508e-08 
  21.000000   -1.5033373094e-01   -1.5378409347e-01   -2.3453932035e-09 
  21.200000   -1.5036955074e-01   -1.5383272284e-01    9.7948902053e-09 
  21.400000   -1.5039244175e-01   -1.5387113027e-01    2.0520399855e-08 
  21.600000   -1.5039934333e-01   -1.5389473285e-01    2.8745208506e-08 
  21.800000   -1.5038900325e-01   -1.5390052941e-01    3.3705332753e-08 
  22.000000   -1.5036215387e-01   -1.5388747030e-01    3.5057098726e-08 
  22.200000   -1.5032144999e-01   -1.5385660391e-01    3.2925314601e-08 
  22.400000   -1.5027117349e-01   -1.5381098011e-01    2.7884342609e-08 
  22.600000   -1.5021673881e-01   -1.5375531957e-01    2.0881191986e-08 
  22.800000   -1.5016405774e-01   -1.5369548607e-01    1.3109655998e-08 
  23.000000   -1.5011884019e-01   -1.5363782255e-01    5.8478103709e-09 
  23.200000   -1.5008591534e-01   -1.5358842867e-01    2.8311000439e-10 
  23.400000   -1.5006865625e-01   -1.5355246438e-01   -2.6527431109e-09 
  23.600000   -1.5006857820e-01   -1.5353356191e-01   -2.4171472309e-09 
  23.800000   -1.5008516039e-01   -1.5353341508e-01    1.0625557366e-09 
  24.000000   -1.5011591318e-01   -1.5355159446e-01    7.3703999861e-09 
  24.200000   -1.5015668289e-01   -1.5358560925e-01    1.5650138495e-08 
  24.400000   -1.5020215761e-01   -1.5363120793e-01    2.4715019634e-08 
  24.600000   -1.5024651145e-01   -1.5368288095e-01    3.3204305824e-08 
  24.800000   -1.5028410919e-01   -1.5373450500e-01    3.9765880074e-08 
  25.000000   -1.5031018458e-01   -1.5378005167e-01    4.3241517413e-08 
  25.200000   -1.5032141062e-01   -1.5381427734e-01    4.2830928640e-08 
  25.400000   -1.5031629196e-01   -1.5383331253e-01    3.8209059576e-08 
  25.600000   -1.5029533341e-01   -1.5383508357e-01    2.9586480441e-08 
  25.800000   -1.5026096571e-01   -1.5381951917e-01    1.7696869408e-08 
  26.000000   -1.5021723942e-01   -1.5378852159e-01    3.7131048686e-09 
  26.200000   -1.5016932649e-01   -1.5374570947e-01   -1.0892714112e-08 
  26.400000   -1.5012289245e-01   -1.5369596750e-01   -2.4531613993e-08 
  26.600000   -1.5008341672e-01   -1.5364485973e-01   -3.5699587253e-08 
  26.800000   -1.5005554376e-01   -1.5359797832e-01   -4.3171673966e-08 
  27.000000   -1.5004254353e-01   -1.5356030579e-01   -4.6162386242e-08 
  27.200000   -1.5004594478e-01   -1.5353566582e-01   -4.4431564656e-08 
  27.400000   -1.5006538239e-01   -1.5352632406e-01   -3.8323428038e-08 
  27.600000   -1.5009867331e-01   -1.5353278222e-01   -2.8751235417e-08 
  27.800000   -1.5014210810e-01   -1.5355378332e-01   -1.7030196436e-08 
  28.000000   -1.5019091856e-01   -1.5358652133e-01   -4.7214465813e-09 
  28.200000   -1.5023986097e-01   -1.5362702303e-01    6.5317874776e-09 
  28.400000   -1.5028384290e-01   -1.5367065126e-01    1.5263762706e-08 
  28.600000   -1.5031851643e-01   -1.5371266521e-01    2.0331790680e-08 
  28.800000   -1.5034076712e-01   -1.5374876888e-01    2.1081907790e-08 
  29.000000   -1.5034904175e-01   -1.5377558251e-01    1.7480730332e-08 
  29.200000   -1.5034347986e-01   -1.5379098357e-01    1.0105540517e-08 
  29.400000   -1.5032583724e-01   -1.5379428233e-01    7.1547082465e-11 
  29.600000   -1.5029921717e-01   -1.5378621758e-01   -1.1110439511e-08 
  29.800000   -1.5026764623e-01   -1.5376878116e-01   -2.1732903911e-08 
  30.000000   -1.5023555292e-01   -1.5374490209e-01   -3.0121617236e-08 
  30.200000   -1.5020721344e-01   -1.5371803473e-01   -3.4866356058e-08 
  30.400000   -1.5018623608e-01   -1.5369170812e-01   -3.5020622674e-08 
  30.600000   -1.5017514529e-01   -1.5366909382e-01   -3.0242249338e-08 
  30.800000   -1.5017511438e-01   -1.5365264677e-01   -2.0855305177e-08 
  31.000000   -1.5018587512e-01   -1.5364385919e-01   -7.8250119771e-09 
  31.200000   -1.5020580964e-01   -1.5364315342e-01    7.3536259483e-09 
  31.400000   -1.5023220668e-01   -1.5364991916e-01    2.2840100343e-08 
  31.600000   -1.5026164445e-01   -1.5366268127e-01    3.6660417110e-08 
  31.800000   -1.5029044673e-01   -1.5367936751e-01    4.7015933364e-08 
  32.000000   -1.5031515253e-01   -1.5369763541e-01    5.2511895428e-08 
  32.200000   -1.5033293844e-01   -1.5371520911e-01    5.2310739780e-08 
  32.400000   -1.5034194234e-01   -1.5373018025e-01    4.6285963901e-08 
  32.600000   -1.5034145072e-01   -1.5374123282e-01    3.5026537202e-08 
  32.800000   -1.5033193161e-01   -1.5374776614e-01    1.9784892496e-08 
  33.000000   -1.5031491486e-01   -1.5374990383e-01    2.3467977925e-09 
  33.200000   -1.5029274259e-01   -1.5374839459e-01   -1.5185191624e-08 
  33.400000   -1.5026822684e-01   -1.5374442612e-01   -3.0681271538e-08 
  33.600000   -1.5024426456e-01   -1.5373938450e-01   -4.2251268255e-08 
  33.800000   -1.5022346097e-01   -1.5373459850e-01   -4.8466746056e-08 
  34.000000   -1.5020781163e-01   -1.5373110886e-01   -4.8559426957e-08 
  34.200000   -1.5019848213e-01   -1.5372949863e-01   -4.2525465549e-08 
  34.400000   -1.5019571083e-01   -1.5372980863e-01   -3.1135379455e-08 
  34.600000   -1.5019884185e-01   -1.5373155029e-01   -1.5843724057e-08 
  34.800000   -1.5020647886e-01   -1.5373381239e-01    1.3950251259e-09 
  35.000000   -1.5021673263e-01   -1.5373544355e-01    1.8371506291e-08 
  35.200000   -1.5022752492e-01   -1.5373528106e-01    3.2888751125e-08 
  35.400000   -1.5023690435e-01   -1.5373238890e-01    4.3077731749e-08 
  35.600000   -1.5024332934e-01   -1.5372626650e-01    4.7641758137e-08 
  35.800000   -1.5024587893e-01   -1.5371699331e-01    4.6002702942e-08 
  36.000000   -1.5024436452e-01   -1.5370528286e-01    3.8396585864e-08 
  36.200000   -1.5023932846e-01   -1.5369243414e-01    2.5855540897e-08 
  36.400000   -1.5023193255e-01   -1.5368018296e-01    1.0078384973e-08 
  36.600000   -1.5022375542e-01   -1.5367047019e-01   -6.7847457152e-09 
  36.800000   -1.5021652895e-01   -1.5366515796e-01   -2.2410202430e-08 
  37.000000   -1.5021185439e-01   -1.5366573429e-01   -3.4593299879e-08 
  37.200000   -1.5021093900e-01   -1.5367304863e-01   -4.1567367538e-08 
  37.400000   -1.5021439319e-01   -1.5368711939e-01   -4.2240526517e-08 
  37.600000   -1.5022211763e-01   -1.5370704660e-01   -3.6329043332e-08 
  37.800000   -1.5023329780e-01   -1.5373104813e-01   -2.4419764845e-08 
  38.000000   -1.5024650775e-01   -1.5375662225e-01   -7.9069203970e-09 
  38.200000   -1.5025990900e-01   -1.5378082176e-01    1.1175856292e-08 
  38.400000   -1.5027151649e-01   -1.5380060843e-01    3.0411529099e-08 
  38.600000   -1.5027949422e-01   -1.5381324429e-01    4.7306675104e-08 
  38.800000   -1.5028243743e-01   -1.5381666850e-01    5.9600483682e-08 
  39.000000   -1.5027960058e-01   -1.5380980900e-01    6.5589786697e-08 
  39.200000   -1.5027103645e-01   -1.5379278436e-01    6.4348658505e-08 
  39.400000   -1.5025762440e-01   -1.5376696297e-01    5.5835590400e-08 
  39.600000   -1.5024098071e-01   -1.5373486522e-01    4.0921920209e-08 
  39.800000   -1.5022326054e-01   -1.5369991424e-01    2.1293278353e-08 
  40.000000   -1.5020687632e-01   -1.5366605989e-01   -7.5945551956e-10 
  40.200000   -1.5019416982e-01   -1.5363731866e-01   -2.2635886370e-08 
  40.400000   -1.5018708142e-01   -1.5361728429e-01   -4.1729126387e-08 
  40.600000   -1.5018686308e-01   -1.5360867041e-01   -5.5758442868e-08 
  40.800000   -1.5019387433e-01   -1.5361294258e-01   -6.3080718565e-08 
  41.000000   -1.5020749215e-01   -1.5363009010e-01   -6.2890813334e-08 
  41.200000   -1.5022614993e-01   -1.5365856972e-01   -5.5327570263e-08 
  41.400000   -1.5024750384e-01   -1.5369543466e-01   -4.1445600325e-08 
  41.600000   -1.5026870809e-01   -1.5373663789e-01   -2.3107452559e-08 
  41.800000   -1.5028676624e-01   -1.5377747859e-01   -2.7450090840e-09 
  42.000000   -1.5029891386e-01   -1.5381314006e-01    1.6987304099e-08 
  42.200000   -1.5030298412e-01   -1.5383925698e-01    3.3515526617e-08 
  42.400000   -1.5029770873e-01   -1.5385244312e-01    4.4685478704e-08 
  42.600000   -1.5028291377e-01   -1.5385071584e-01    4.9062423287e-08 
  42.800000   -1.5025958302e-01   -1.5383376307e-01    4.6110769896e-08 
  43.000000   -1.5022977743e-01   -1.5380301770e-01    3.6267122689e-08 
  43.200000   -1.5019641858e-01   -1.5376152767e-01    2.0888244409e-08 
  43.400000   -1.5016295907e-01   -1.5371363286e-01    2.0764715685e-09 
  43.600000   -1.5013298033e-01   -1.5366448461e-01   -1.7592258588e-08 
  43.800000   -1.5010976573e-01   -1.5361946310e-01   -3.5402574776e-08 
  44.000000   -1.5009590192e-01   -1.5358356020e-01   -4.8857555671e-08 
  44.200000   -1.5009295765e-01   -1.5356080028e-01   -5.6010170667e-08 
  44.400000   -1.5010128150e-01   -1.5355376813e-01   -5.5724535454e-08 
  44.600000   -1.5011994448e-01   -1.5356330117e-01   -4.7832585866e-08 
  44.800000   -1.5014683650e-01   -1.5358838233e-01   -3.3166971713e-08 
  45.000000   -1.5017890585e-01   -1.5362624825e-01   -1.3461871883e-08 
  45.200000   -1.5021251459e-01   -1.5367270083e-01    8.8639956310e-09 
  45.400000   -1.5024386598e-01   -1.5372258506e-01    3.1015714667e-08 
  45.600000   -1.5026945375e-01   -1.5377037960e-01    5.0185643485e-08 
  45.800000   -1.5028647703e-01   -1.5381082775e-01    6.3913727768e-08 
  46.000000   -1.5029317178e-01   -1.5383953766e-01    7.0409891903e-08 
  46.200000   -1.5028901768e-01   -1.5385347985e-01    6.8794941361e-08 
  46.400000   -1.5027479535e-01   -1.5385132499e-01    5.9216677539e-08 
  46.600000   -1.5025248767e-01   -1.5383358275e-01    4.2836587938e-08 
  46.800000   -1.5022503758e-01   -1.5380252789e-01    2.1688890757e-08 
  47.000000   -1.5019599200e-01   -1.5376192263e-01   -1.5767510847e-09 
  47.200000   -1.5016907655e-01   -1.5371657081e-01   -2.4032158330e-08 
  47.400000   -1.5014775154e-01   -1.5367175660e-01   -4.2846816760e-08 
  47.600000   -1.5013480424e-01   -1.5363263611e-01   -5.5666293222e-08 
  47.800000   -1.5013202539e-01   -1.5360365123e-01   -6.0889611400e-08 
  48.000000   -1.5014000835e-01   -1.5358803595e-01   -5.7880854210e-08 
  48.200000   -1.5015809329e-01   -1.5358746976e-01   -4.7076759148e-08 
  48.400000   -1.5018446084e-01   -1.5360191637e-01   -2.9921973748e-08 
  48.600000   -1.5021636203e-01   -1.5362966270e-01   -8.6852934445e-09 
  48.800000   -1.5025045398e-01   -1.5366754941e-01    1.3831702656e-08 
  49.000000   -1.5028319985e-01   -1.5371136275e-01    3.4656112054e-08 
  49.200000   -1.5031128278e-01   -1.5375633666e-01    5.1028740330e-08 
  49.400000   -1.5033198461e-01   -1.5379770495e-01    6.0765193322e-08 
  49.600000   -1.5034348457e-01   -1.5383123823e-01    6.2541878768e-08 
  49.800000   -1.5034504339e-01   -1.5385370225e-01    5.6073227128e-08 
  50.000000   -1.5033705422e-01   -1.5386318699e-01    4.2153782373e-08 
  50.200000   -1.5032095729e-01   -1.5385927285e-01    2.2560462205e-08 
  50.400000   -1.5029903296e-01   -1.5384301889e-01   -1.7297885676e-10 
  50.600000   -1.5027410124e-01   -1.5381678187e-01   -2.3085019650e-08 
  50.800000   -1.5024916777e-01   -1.5378389267e-01   -4.3171490481e-08 
  51.000000   -1.5022706083e-01   -1.5374823491e-01   -5.7765455730e-08 
  51.200000   -1.5021010398e-01   -1.5371377798e-01   -6.4914365061e-08 
  51.400000   -1.5019986342e-01   -1.5368412297e-01   -6.3638726820e-08 
  51.600000   -1.5019699868e-01   -1.5366211367e-01   -5.4044045913e-08 
  51.800000   -1.5020123067e-01   -1.5364955661e-01   -3.7326880485e-08 
  52.000000   -1.5021142744e-01   -1.5364707727e-01   -1.5625660081e-08 
  52.200000   -1.5022579129e-01   -1.5365412314e-01    8.2300489399e-09 
  52.400000   -1.5024212050e-01   -1.5366910556e-01    3.1153556500e-08 
  52.600000   -1.5025810882e-01   -1.5368965510e-01    5.0131461725e-08 
  52.800000   -1.5027164362e-01   -1.5371295298e-01    6.2640006769e-08 
  53.000000   -1.5028106423e-01   -1.5373609376e-01    6.6979146801e-08 
  53.200000   -1.5028534912e-01   -1.5375643261e-01    6.2498866088e-08 
  53.400000   -1.5028421084e-01   -1.5377187529e-01    4.9702422220e-08 
  53.600000   -1.5027809029e-01   -1.5378107846e-01    3.0162207426e-08 
  53.800000   -1.5026805569e-01   -1.5378354148e-01    6.3302273097e-09 
  54.000000   -1.5025562343e-01   -1.5377958609e-01   -1.8753740547e-08 
