
  &&electric field in cartesian unit:  8.660254e-04  5.000000e-04  0.000000e+00 
  &&current at groud state:    2.8832504158e-03    5.0301507137e-03   -5.0324537249e-09 nonzero due to kpoint sampling
  0.000000    2.6648312836e-03    4.4216228992e-03   -3.1886176567e-09 
  0.200000    2.2518385249e-03    3.2956904141e-03    8.4808230563e-10 
  0.400000    1.9315571905e-03    2.4195260631e-03    8.6725420999e-09 
  0.600000    1.7502749752e-03    1.9179767559e-03    2.1640914621e-08 
  0.800000    1.7332039778e-03    1.8595591933e-03    4.0186074810e-08 
  1.000000    1.8810308153e-03    2.2470142794e-03    6.3506398517e-08 
  1.200000    2.1699858565e-03    3.0172479693e-03    8.9361446199e-08 
  1.400000    2.5557308389e-03    4.0515216423e-03    1.1480429613e-07 
  1.600000    2.9800633912e-03    5.1932709468e-03    1.3664561018e-07 
  1.800000    3.3799127464e-03    6.2721872067e-03    1.5207035149e-07 
  2.000000    3.6967246341e-03    7.1294985278e-03    1.5933478458e-07 
  2.200000    3.8850028333e-03    7.6411273514e-03    1.5776990537e-07 
  2.400000    3.9189399551e-03    7.7358231973e-03    1.4795375472e-07 
  2.600000    3.7957008244e-03    7.4043404780e-03    1.3186985130e-07 
  2.800000    3.5354859739e-03    6.6999438431e-03    1.1226316938e-07 
  3.000000    3.1781031453e-03    5.7294321684e-03    9.2304231588e-08 
  3.200000    2.7769470309e-03    4.6370544498e-03    7.4809284670e-08 
  3.400000    2.3908100835e-03    3.5824456728e-03    6.1800764806e-08 
  3.600000    2.0752223289e-03    2.7171340378e-03    5.4200099606e-08 
  3.800000    1.8744179709e-03    2.1626164610e-03    5.1317612624e-08 
  4.000000    1.8149027212e-03    1.9926672337e-03    5.1143658322e-08 
  4.200000    1.9020283176e-03    2.2237323106e-03    5.0748135182e-08 
  4.400000    2.1195130480e-03    2.8132959306e-03    4.6873245669e-08 
  4.600000    2.4322760390e-03    3.6672660446e-03    3.6640199376e-08 
  4.800000    2.7918277424e-03    4.6543797010e-03    1.8168204871e-08 
  5.000000    3.1438535529e-03    5.6266712579e-03   -8.9312250856e-09 
  5.200000    3.4364101049e-03    6.4417473332e-03   -4.3347960340e-08 
  5.400000    3.6276364251e-03    6.9838950080e-03   -8.2090105118e-08 
  5.600000    3.6919947223e-03    7.1813196398e-03   -1.2102809069e-07 
  5.800000    3.6236294003e-03    7.0156397350e-03   -1.5574561034e-07 
  6.000000    3.4368630536e-03    6.5236386380e-03   -1.8204401734e-07 
  6.200000    3.1635352060e-03    5.7903799441e-03   -1.9685675737e-07 
  6.400000    2.8476366995e-03    4.9348798019e-03   -1.9905527022e-07 
  6.600000    2.5384141211e-03    4.0914784524e-03   -1.8939406895e-07 
  6.800000    2.2825006144e-03    3.3883912062e-03   -1.7042309946e-07 
  7.000000    2.1168997857e-03    2.9284236270e-03   -1.4648638336e-07 
  7.200000    2.0634655940e-03    2.7736268984e-03   -1.2291987300e-07 
  7.400000    2.1261768265e-03    2.9374741014e-03   -1.0480012907e-07 
  7.600000    2.2911035839e-03    3.3843410297e-03   -9.6183721579e-08 
  7.800000    2.5292209526e-03    4.0367784478e-03   -9.9131500967e-08 
  8.000000    2.8015276399e-03    4.7891634841e-03   -1.1331053491e-07 
  8.200000    3.0653267103e-03    5.5246571359e-03   -1.3589351273e-07 
  8.400000    3.2810857470e-03    6.1339123874e-03   -1.6186782117e-07 
  8.600000    3.4185210872e-03    6.5318693469e-03   -1.8461877497e-07 
  8.800000    3.4607402482e-03    6.6694078931e-03   -1.9712188181e-07 
  9.000000    3.4063215228e-03    6.5394975657e-03   -1.9379088788e-07 
  9.200000    3.2688488051e-03    6.1764697309e-03   -1.7146097984e-07 
  9.400000    3.0741417469e-03    5.6489572616e-03   -1.2939585261e-07 
  9.600000    2.8557118384e-03    5.0478733712e-03   -6.9816750570e-08 
  9.800000    2.6492273184e-03    4.4714782547e-03    1.9401092679e-09 
  10.000000    2.4868832833e-03    4.0099358081e-03    7.7963163964e-08 
  10.200000    2.3925492758e-03    3.7317364138e-03    1.4884889367e-07 
  10.400000    2.3784118907e-03    3.6739719945e-03    2.0610383402e-07 
  10.600000    2.4435656331e-03    3.8377999450e-03    2.4312227446e-07 
  10.800000    2.5746908079e-03    4.1896090093e-03    2.5593114305e-07 
  11.000000    2.7486390200e-03    4.6675196736e-03    2.4482310640e-07 
  11.200000    2.9364558947e-03    5.1920609429e-03    2.1379306848e-07 
  11.400000    3.1081677121e-03    5.6792573321e-03    1.6991850725e-07 
  11.600000    3.2375615947e-03    6.0540313732e-03    1.2273835308e-07 
  11.800000    3.3062060134e-03    6.2618255025e-03    8.2589243557e-08 
  12.000000    3.3061062748e-03    6.2766487595e-03    5.8731663424e-08 
  12.200000    3.2406111427e-03    6.1043521610e-03    5.7650539822e-08 
  12.400000    3.1234727648e-03    5.7807113051e-03    8.1519098873e-08 
  12.600000    2.9762679936e-03    5.3647324496e-03    1.2794889010e-07 
  12.800000    2.8246359406e-03    4.9283610065e-03    1.9059036724e-07 
  13.000000    2.6939735990e-03    4.5443491262e-03    2.5986950876e-07 
  13.200000    2.6053023677e-03    4.2743176260e-03    3.2409596666e-07 
  13.400000    2.5719736816e-03    4.1589791055e-03    3.7088326890e-07 
  13.600000    2.5977360396e-03    4.2120912488e-03    3.9002400284e-07 
  13.800000    2.6764390613e-03    4.4190546173e-03    3.7534932750e-07 
  14.000000    2.7933782542e-03    4.7402640901e-03    3.2538321670e-07 
  14.200000    2.9280139052e-03    5.1185149514e-03    2.4395295848e-07 
  14.400000    3.0575689050e-03    5.4890962279e-03    1.4034872693e-07 
  14.600000    3.1608815606e-03    5.7907916420e-03    2.7216026267e-08 
  14.800000    3.2218618029e-03    5.9759090282e-03   -8.1301491525e-08 
  15.000000    3.2319884744e-03    6.0176895722e-03   -1.7137496816e-07 
  15.200000    3.1914609283e-03    5.9139603047e-03   -2.3194010223e-07 
  15.400000    3.1088586397e-03    5.6865631740e-03   -2.5704059701e-07 
  15.600000    2.9994165141e-03    5.3768293460e-03   -2.4620621626e-07 
  15.800000    2.8822474778e-03    5.0380159760e-03   -2.0479564011e-07 
  16.000000    2.7770187183e-03    4.7260844248e-03   -1.4361545469e-07 
  16.200000    2.7006546079e-03    4.4904127155e-03   -7.6895074975e-08 
  16.400000    2.6646150129e-03    4.3659713461e-03   -2.0191200779e-08 
  16.600000    2.6731836252e-03    4.3681739160e-03    1.3141842823e-08 
  16.800000    2.7230177782e-03    4.4911297156e-03    1.4087073592e-08 
  17.000000    2.8039904121e-03    4.7094392348e-03   -2.1735367079e-08 
  17.200000    2.9011375675e-03    4.9830961385e-03   -9.2813680755e-08 
  17.400000    2.9973473726e-03    5.2645750995e-03   -1.9062321174e-07 
  17.600000    3.0763118551e-03    5.5068792987e-03   -3.0118338296e-07 
  17.800000    3.1252393997e-03    5.6712194097e-03   -4.0778333887e-07 
  18.000000    3.1368800210e-03    5.7330895395e-03   -4.9411391061e-07 
  18.200000    3.1105446695e-03    5.6858092534e-03   -5.4590193320e-07 
  18.400000    3.0519819796e-03    5.5410350341e-03   -5.5367611707e-07 
  18.600000    2.9721704678e-03    5.3262354037e-03   -5.1470288544e-07 
  18.800000    2.8852673915e-03    5.0796275149e-03   -4.3313723302e-07 
  19.000000    2.8060832797e-03    4.8434653163e-03   -3.1964606946e-07 
  19.200000    2.7475333593e-03    4.6568197426e-03   -1.8997211998e-07 
  19.400000    2.7184940384e-03    4.5490719665e-03   -6.2943930132e-08 
  19.600000    2.7224117480e-03    4.5351919817e-03    4.4049499431e-08 
  19.800000    2.7568940313e-03    4.6135664937e-03    1.1747418461e-07 
  20.000000    2.8143069124e-03    4.7667068336e-03    1.4872709975e-07 
  20.200000    2.8832566585e-03    4.9646700498e-03    1.3620190235e-07 
  20.400000    2.9506851466e-03    5.1705669071e-03    8.6368220961e-08 
  20.600000    3.0041954953e-03    5.3471748679e-03    1.2418556668e-08 
  20.800000    3.0342079425e-03    5.4634873099e-03   -6.8333523575e-08 
  21.000000    3.0355796956e-03    5.5000560448e-03   -1.3698441050e-07 
  21.200000    3.0084236256e-03    5.4522120279e-03   -1.7660497018e-07 
  21.400000    2.9579974570e-03    5.3306186399e-03   -1.7483466227e-07 
  21.600000    2.8936986751e-03    5.1590995416e-03   -1.2568514863e-07 
  21.800000    2.8273524472e-03    4.9701608446e-03   -3.1174584413e-08 
  22.000000    2.7710947493e-03    4.7990283642e-03    9.9199895497e-08 
  22.200000    2.7352181174e-03    4.6772783688e-03    2.4908603283e-07 
  22.400000    2.7263503614e-03    4.6271903692e-03    3.9792435546e-07 
  22.600000    2.7462798096e-03    4.6578142007e-03    5.2487808634e-07 
  22.800000    2.7916234336e-03    4.7634261541e-03    6.1229238917e-07 
  23.000000    2.8544017580e-03    4.9246144931e-03    6.4848768941e-07 
  23.200000    2.9234130210e-03    5.1117813808e-03    6.2931550037e-07 
  23.400000    2.9861793918e-03    5.2904177043e-03    5.5899168493e-07 
  23.600000    3.0311305342e-03    5.4272199068e-03    4.4966542588e-07 
  23.800000    3.0496459371e-03    5.4959803596e-03    3.1931628456e-07 
  24.000000    3.0376073228e-03    5.4822318955e-03    1.8933940239e-07 
  24.200000    2.9961865994e-03    5.3858585420e-03    8.0618494749e-08 
  24.400000    2.9317287019e-03    5.2212431774e-03    9.6141195944e-09 
  24.600000    2.8547436216e-03    5.0149323496e-03   -1.3784228589e-08 
  24.800000    2.7781667595e-03    4.8012205821e-03    1.2170387327e-08 
  25.000000    2.7151837862e-03    4.6164049369e-03    8.0671361975e-08 
  25.200000    2.6769884053e-03    4.4926693166e-03    1.7721286298e-07 
  25.400000    2.6708511587e-03    4.4526172024e-03    2.8187644568e-07 
  25.600000    2.6988312892e-03    4.5053565925e-03    3.7218125782e-07 
  25.800000    2.7573558929e-03    4.6447857755e-03    4.2793050962e-07 
  26.000000    2.8377376316e-03    4.8503712453e-03    4.3469017014e-07 
  26.200000    2.9275440668e-03    5.0902964872e-03    3.8510637570e-07 
  26.400000    3.0125957957e-03    5.3264768469e-03    2.8105287273e-07 
  26.600000    3.0792606383e-03    5.5206445828e-03    1.3267780178e-07 
  26.800000    3.1166621258e-03    5.6405213503e-03   -4.2611692874e-08 
  27.000000    3.1184436955e-03    5.6650833733e-03   -2.2214629557e-07 
  27.200000    3.0838042530e-03    5.5880713898e-03   -3.8264085294e-07 
  27.400000    3.0176382131e-03    5.4191719421e-03   -5.0375381675e-07 
  27.600000    2.9297729348e-03    5.1826661037e-03   -5.7115298821e-07 
  27.800000    2.8334289964e-03    4.9137587832e-03   -5.7871940344e-07 
  28.000000    2.7431585061e-03    4.6531512047e-03   -5.2983136565e-07 
  28.200000    2.6725942327e-03    4.4407161718e-03   -4.3680974717e-07 
  28.400000    2.6323597320e-03    4.3092845091e-03   -3.1870005655e-07 
  28.600000    2.6284640031e-03    4.2795148938e-03   -1.9859117352e-07 
  28.800000    2.6614210725e-03    4.3566601183e-03   -9.9428565996e-08 
  29.000000    2.7262182336e-03    4.5297393981e-03   -4.0102925868e-08 
  29.200000    2.8131249752e-03    4.7732342347e-03   -3.2966997071e-08 
  29.400000    2.9092059331e-03    5.0510309312e-03   -8.1113801386e-08 
  29.600000    3.0002971549e-03    5.3219813183e-03   -1.7757683630e-07 
  29.800000    3.0731374514e-03    5.5461971689e-03   -3.0677650873e-07 
  30.000000    3.1173308368e-03    5.6910908047e-03   -4.4722883668e-07 
  30.200000    3.1268458768e-03    5.7362235902e-03   -5.7513344479e-07 
  30.400000    3.1008336368e-03    5.6762273622e-03   -6.6794302297e-07 
  30.600000    3.0436520523e-03    5.5213774495e-03   -7.0778478406e-07 
  30.800000    2.9641097880e-03    5.2957737618e-03   -6.8491667801e-07 
  31.000000    2.8740600173e-03    5.0334578617e-03   -5.9981260784e-07 
  31.200000    2.7865694430e-03    4.7731153381e-03   -4.6225205160e-07 
  31.400000    2.7139565639e-03    4.5522059891e-03   -2.9008048840e-07 
  31.600000    2.6659973495e-03    4.4014479579e-03   -1.0682011756e-07 
  31.800000    2.6485692255e-03    4.3404825060e-03    6.3018373455e-08 
  32.000000    2.6629319580e-03    4.3753369643e-03    1.9748686785e-07 
  32.200000    2.7057273146e-03    4.4980138631e-03    2.8058477457e-07 
  32.400000    2.7696732866e-03    4.6881880914e-03    3.0477839772e-07 
  32.600000    2.8448168711e-03    4.9166724152e-03    2.7206444598e-07 
  32.800000    2.9201283480e-03    5.1500448547e-03    1.9459080857e-07 
  33.000000    2.9851744554e-03    5.3556953559e-03    9.1957861003e-08 
  33.200000    3.0316068769e-03    5.5065129871e-03   -1.2798045518e-08 
  33.400000    3.0542504683e-03    5.5845270585e-03   -9.6584708432e-08 
  33.600000    3.0516453487e-03    5.5830122789e-03   -1.4016328136e-07 
  33.800000    3.0259972787e-03    5.5068308793e-03   -1.3145179351e-07 
  34.000000    2.9825865609e-03    5.3710600540e-03   -6.7429330655e-08 
  34.200000    2.9287648187e-03    5.1982064786e-03    4.5219264176e-08 
  34.400000    2.8727270555e-03    5.0145092131e-03    1.9136584578e-07 
  34.600000    2.8222629410e-03    4.8459356397e-03    3.4984062120e-07 
  34.800000    2.7836826212e-03    4.7144892082e-03    4.9677391545e-07 
  35.000000    2.7610580882e-03    4.6353511259e-03    6.0995200500e-07 
  35.200000    2.7558689972e-03    4.6152226390e-03    6.7273570088e-07 
  35.400000    2.7670665150e-03    4.6520346511e-03    6.7626369205e-07 
  35.600000    2.7915006698e-03    4.7359654933e-03    6.2087750940e-07 
  35.800000    2.8246088256e-03    4.8515178689e-03    5.1647708284e-07 
  36.000000    2.8612323913e-03    4.9802593428e-03    3.8038886220e-07 
  36.200000    2.8964266356e-03    5.1037603529e-03    2.3494506486e-07 
  36.400000    2.9261347045e-03    5.2062637836e-03    1.0384807426e-07 
  36.600000    2.9476374180e-03    5.2767006049e-03    7.0773523544e-09 
  36.800000    2.9597435065e-03    5.3097939867e-03   -4.2072953233e-08 
  37.000000    2.9627128558e-03    5.3061564602e-03   -3.8604637558e-08 
  37.200000    2.9579611797e-03    5.2714627909e-03    1.2924633219e-08 
  37.400000    2.9476261519e-03    5.2149253121e-03    9.9446644687e-08 
  37.600000    2.9340857852e-03    5.1473871742e-03    2.0157976197e-07 
  37.800000    2.9195235986e-03    5.0793976822e-03    2.9704831478e-07 
  38.000000    2.9056112706e-03    5.0196024540e-03    3.6491598261e-07 
  38.200000    2.8933542843e-03    4.9736886864e-03    3.8844276498e-07 
  38.400000    2.8831095130e-03    4.9440141208e-03    3.5821589634e-07 
  38.600000    2.8747492164e-03    4.9298991511e-03    2.7399816200e-07 
  38.800000    2.8679137156e-03    4.9284475805e-03    1.4504717646e-07 
  39.000000    2.8622840946e-03    4.9356612420e-03   -1.1505789828e-08 
  39.200000    2.8577994191e-03    4.9475801230e-03   -1.7378028980e-07 
  39.400000    2.8547615029e-03    4.9612049552e-03   -3.1824751961e-07 
  39.600000    2.8538035043e-03    4.9750180665e-03   -4.2415049021e-07 
  39.800000    2.8557273986e-03    4.9890280890e-03   -4.7666627827e-07 
  40.000000    2.8612472472e-03    5.0043717765e-03   -4.7000502964e-07 
  40.200000    2.8707031673e-03    5.0226039923e-03   -4.0883513099e-07 
  40.400000    2.8838226604e-03    5.0448799419e-03   -3.0638528161e-07 
  40.600000    2.8995930559e-03    5.0712406354e-03   -1.8234583413e-07 
  40.800000    2.9162910699e-03    5.1001836847e-03   -6.0073173784e-08 
  41.000000    2.9316805938e-03    5.1286413194e-03    3.7862983496e-08 
  41.200000    2.9433500656e-03    5.1523848197e-03    9.2880755331e-08 
  41.400000    2.9491328813e-03    5.1667778173e-03    9.3520655673e-08 
  41.600000    2.9475274764e-03    5.1677278782e-03    3.8388187167e-08 
  41.800000    2.9380302450e-03    5.1526371682e-03   -6.3432356403e-08 
  42.000000    2.9213124394e-03    5.1211516375e-03   -1.9456246034e-07 
  42.200000    2.8992000596e-03    5.0755403970e-03   -3.3229185141e-07 
  42.400000    2.8744453128e-03    5.0206096269e-03   -4.5199255911e-07 
  42.600000    2.8503252535e-03    4.9631438514e-03   -5.3150086714e-07 
  42.800000    2.8301383976e-03    4.9109501592e-03   -5.5559206747e-07 
  43.000000    2.8166799461e-03    4.8716647048e-03   -5.1830991379e-07 
  43.200000    2.8117911797e-03    4.8515136410e-03   -4.2381667461e-07 
  43.400000    2.8160583988e-03    4.8542390082e-03   -2.8579283319e-07 
  43.600000    2.8287135893e-03    4.8803784874e-03   -1.2502841977e-07 
  43.800000    2.8477571293e-03    4.9270282985e-03    3.3325739830e-08 
  44.000000    2.8702739619e-03    4.9881487134e-03    1.6422328072e-07 
  44.200000    2.8928914592e-03    5.0553777429e-03    2.4657421050e-07 
  44.400000    2.9123069931e-03    5.1192375154e-03    2.6710043496e-07 
  44.600000    2.9257962174e-03    5.1705564133e-03    2.2321641974e-07 
  44.800000    2.9316218451e-03    5.2018847311e-03    1.2358087954e-07 
  45.000000    2.9292779988e-03    5.2086711171e-03   -1.3803290288e-08 
  45.200000    2.9195315837e-03    5.1900056697e-03   -1.6442956732e-07 
  45.400000    2.9042590380e-03    5.1487975148e-03   -3.0168022323e-07 
  45.600000    2.8861061901e-03    5.0913457324e-03   -4.0134164617e-07 
  45.800000    2.8680303575e-03    5.0263576853e-03   -4.4498270673e-07 
  46.000000    2.8528015909e-03    4.9635637056e-03   -4.2358664783e-07 
  46.200000    2.8425488004e-03    4.9121629032e-03   -3.3988513235e-07 
  46.400000    2.8384254230e-03    4.8793562089e-03   -2.0822262946e-07 
  46.600000    2.8404482632e-03    4.8692195640e-03   -5.1137514303e-08 
  46.800000    2.8475453758e-03    4.8821122731e-03    1.0408188698e-07 
  47.000000    2.8578003761e-03    4.9147174600e-03    2.2915580172e-07 
  47.200000    2.8688490908e-03    4.9607118069e-03    3.0112595620e-07 
  47.400000    2.8783535570e-03    5.0119370782e-03    3.0604164333e-07 
  47.600000    2.8844622145e-03    5.0598470655e-03    2.4091273414e-07 
  47.800000    2.8861734842e-03    5.0969755176e-03    1.1495202607e-07 
  48.000000    2.8835308223e-03    5.1181617983e-03   -5.2446348445e-08 
  48.200000    2.8776019497e-03    5.1213156124e-03   -2.3398635211e-07 
  48.400000    2.8702474074e-03    5.1076012208e-03   -3.9942240897e-07 
  48.600000    2.8637218841e-03    5.0810304858e-03   -5.2043261559e-07 
  48.800000    2.8601800265e-03    5.0475612330e-03   -5.7531443291e-07 
  49.000000    2.8611843031e-03    5.0138901837e-03   -5.5345672753e-07 
  49.200000    2.8673206390e-03    4.9861759998e-03   -4.5720806699e-07 
  49.400000    2.8780011363e-03    4.9689239680e-03   -3.0164002325e-07 
  49.600000    2.8915011383e-03    4.9642391091e-03   -1.1184932170e-07 
  49.800000    2.9052369267e-03    4.9715638604e-03    8.0691475230e-08 
  50.000000    2.9162369017e-03    4.9879177294e-03    2.4332426466e-07 
  50.200000    2.9217236470e-03    5.0085834832e-03    3.4797799664e-07 
  50.400000    2.9196961961e-03    5.0281006475e-03    3.7675113123e-07 
  50.600000    2.9094011868e-03    5.0413693114e-03    3.2525137714e-07 
  50.800000    2.8915934601e-03    5.0446629285e-03    2.0234788635e-07 
  51.000000    2.8685240910e-03    5.0363725909e-03    2.9147033617e-08 
  51.200000    2.8436490058e-03    5.0173491069e-03   -1.6386827359e-07 
  51.400000    2.8210946166e-03    4.9907881771e-03   -3.4122756827e-07 
  51.600000    2.8049666339e-03    4.9616695794e-03   -4.6826635997e-07 
  51.800000    2.7986213410e-03    4.9358504340e-03   -5.1843262012e-07 
  52.000000    2.8040235212e-03    4.9189725808e-03   -4.7808246970e-07 
  52.200000    2.8213107008e-03    4.9153643799e-03   -3.4800325318e-07 
  52.400000    2.8486529284e-03    4.9271330369e-03   -1.4323450577e-07 
  52.600000    2.8824385851e-03    4.9536246272e-03    1.0778304346e-07 
  52.800000    2.9177718874e-03    4.9913682025e-03    3.6757227734e-07 
  53.000000    2.9492099486e-03    5.0345291270e-03    5.9601034349e-07 
  53.200000    2.9716196783e-03    5.0758272645e-03    7.5732819725e-07 
  53.400000    2.9810260046e-03    5.1077749492e-03    8.2631838632e-07 
  53.600000    2.9753040110e-03    5.1240236924e-03    7.9189036310e-07 
  53.800000    2.9546000650e-03    5.1205816457e-03    6.5945208610e-07 
  54.000000    2.9214042151e-03    5.0966693471e-03    4.5046368168e-07 
