
  &&electric field in cartesian unit:  8.660254e-04  5.000000e-04  0.000000e+00 
  &&current at groud state:    1.2945095014e-02    1.8548040938e-02    5.7782369627e-09 nonzero due to kpoint sampling
  0.000000    1.2831325266e-02    1.8271520171e-02    1.0838470816e-08 
  0.200000    1.2625025411e-02    1.7752472322e-02    1.9379389192e-08 
  0.400000    1.2467505136e-02    1.7352715205e-02    2.8831212352e-08 
  0.600000    1.2382253627e-02    1.7130990667e-02    3.9410147648e-08 
  0.800000    1.2381264597e-02    1.7117580147e-02    5.0975536248e-08 
  1.000000    1.2463306323e-02    1.7309882115e-02    6.2946745827e-08 
  1.200000    1.2614228162e-02    1.7673077848e-02    7.4273537103e-08 
  1.400000    1.2809355675e-02    1.8146061142e-02    8.3747638355e-08 
  1.600000    1.3017413854e-02    1.8651208628e-02    9.0216433705e-08 
  1.800000    1.3205533007e-02    1.9106907387e-02    9.2828827289e-08 
  2.000000    1.3344333191e-02    1.9440276904e-02    9.1285848114e-08 
  2.200000    1.3412369092e-02    1.9598282432e-02    8.5797850027e-08 
  2.400000    1.3399344515e-02    1.9555764541e-02    7.7078804774e-08 
  2.600000    1.3307449854e-02    1.9318723910e-02    6.6310879822e-08 
  2.800000    1.3150875742e-02    1.8923053009e-02    5.4894743792e-08 
  3.000000    1.2953488251e-02    1.8428662814e-02    4.4246145752e-08 
  3.200000    1.2745172470e-02    1.7910315048e-02    3.5417377363e-08 
  3.400000    1.2557208122e-02    1.7446041815e-02    2.8978115013e-08 
  3.600000    1.2417553262e-02    1.7105369646e-02    2.4915686667e-08 
  3.800000    1.2346664679e-02    1.6938901787e-02    2.2488166573e-08 
  4.000000    1.2354399419e-02    1.6970590045e-02    2.0391429911e-08 
  4.200000    1.2438647262e-02    1.7194354123e-02    1.6985269631e-08 
  4.400000    1.2585696956e-02    1.7575010885e-02    1.0593353097e-08 
  4.600000    1.2772416865e-02    1.8053753934e-02   -1.5920172198e-10 
  4.800000    1.2969807769e-02    1.8557071460e-02   -1.6038624287e-08 
  5.000000    1.3147568876e-02    1.9008260764e-02   -3.6990939627e-08 
  5.200000    1.3278802243e-02    1.9339323162e-02   -6.1991258026e-08 
  5.400000    1.3344171390e-02    1.9501527325e-02   -8.9050042149e-08 
  5.600000    1.3334917728e-02    1.9473128043e-02   -1.1563223733e-07 
  5.800000    1.3254063891e-02    1.9262474671e-02   -1.3901267759e-07 
  6.000000    1.3115805483e-02    1.8906511254e-02   -1.5656015558e-07 
  6.200000    1.2943097476e-02    1.8464616841e-02   -1.6633918049e-07 
  6.400000    1.2763837667e-02    1.8008803150e-02   -1.6761625676e-07 
  6.600000    1.2606401784e-02    1.7612216886e-02   -1.6054968528e-07 
  6.800000    1.2495062705e-02    1.7337258517e-02   -1.4661736654e-07 
  7.000000    1.2446266000e-02    1.7225926582e-02   -1.2826835383e-07 
  7.200000    1.2466178556e-02    1.7293469345e-02   -1.0834167620e-07 
  7.400000    1.2550071112e-02    1.7526793960e-02   -8.9912471535e-08 
  7.600000    1.2683398447e-02    1.7887303071e-02   -7.5819067103e-08 
  7.800000    1.2844435300e-02    1.8317795141e-02   -6.7982730947e-08 
  8.000000    1.3007980495e-02    1.8752154322e-02   -6.6669387069e-08 
  8.200000    1.3149390060e-02    1.9125877427e-02   -7.0732001163e-08 
  8.400000    1.3248458865e-02    1.9386193170e-02   -7.7853200599e-08 
  8.600000    1.3292432525e-02    1.9499919443e-02   -8.4602977341e-08 
  8.800000    1.3277626213e-02    1.9457659397e-02   -8.7335946358e-08 
  9.000000    1.3209629293e-02    1.9274331401e-02   -8.3169594433e-08 
  9.200000    1.3102033508e-02    1.8985875639e-02   -6.9852603513e-08 
  9.400000    1.2973978628e-02    1.8642868801e-02   -4.6215029300e-08 
  9.600000    1.2846939046e-02    1.8302165485e-02   -1.2798082681e-08 
  9.800000    1.2741277649e-02    1.8017913350e-02    2.8193437174e-08 
  10.000000    1.2673107041e-02    1.7833315052e-02    7.3235127014e-08 
  10.200000    1.2651928014e-02    1.7774346988e-02    1.1794046195e-07 
  10.400000    1.2679383060e-02    1.7846313579e-02    1.5788950710e-07 
  10.600000    1.2749281801e-02    1.8033684887e-02    1.8921307024e-07 
  10.800000    1.2848860813e-02    1.8303170299e-02    2.0906519330e-07 
  11.000000    1.2961054616e-02    1.8609502236e-02    2.1626597851e-07 
  11.200000    1.3067396763e-02    1.8902995646e-02    2.1158392287e-07 
  11.400000    1.3151076030e-02    1.9137674560e-02    1.9760495541e-07 
  11.600000    1.3199652803e-02    1.9278660323e-02    1.7825745449e-07 
  11.800000    1.3206993782e-02    1.9307626502e-02    1.5810397344e-07 
  12.000000    1.3174115347e-02    1.9225426788e-02    1.4166736145e-07 
  12.200000    1.3108806302e-02    1.9051465824e-02    1.3249392979e-07 
  12.400000    1.3024107107e-02    1.8819935478e-02    1.3253286583e-07 
  12.600000    1.2935920215e-02    1.8573577462e-02    1.4165436600e-07 
  12.800000    1.2860172814e-02    1.8356072085e-02    1.5765884318e-07 
  13.000000    1.2810031067e-02    1.8204402631e-02    1.7670446056e-07 
  13.200000    1.2793652281e-02    1.8142541542e-02    1.9393393200e-07 
  13.400000    1.2812862395e-02    1.8177571269e-02    2.0406331442e-07 
  13.600000    1.2862981077e-02    1.8298895265e-02    2.0256506241e-07 
  13.800000    1.2933805779e-02    1.8480620407e-02    1.8661644080e-07 
  14.000000    1.3011560630e-02    1.8686619138e-02    1.5523711753e-07 
  14.200000    1.3081448716e-02    1.8877300608e-02    1.0975244280e-07 
  14.400000    1.3130339648e-02    1.9016826773e-02    5.3917770984e-08 
  14.600000    1.3149112653e-02    1.9079469192e-02   -7.0648727149e-09 
  14.800000    1.3134244111e-02    1.9054001214e-02   -6.7313783003e-08 
  15.000000    1.3088374277e-02    1.8945400282e-02   -1.2097754397e-07 
  15.200000    1.3019770870e-02    1.8773644516e-02   -1.6318885759e-07 
  15.400000    1.2940805969e-02    1.8569903050e-02   -1.9103100115e-07 
  15.600000    1.2865730060e-02    1.8370860734e-02   -2.0377975637e-07 
  15.800000    1.2808140230e-02    1.8212206303e-02   -2.0314333188e-07 
  16.000000    1.2778587776e-02    1.8122412420e-02   -1.9319569632e-07 
  16.200000    1.2782732807e-02    1.8117846416e-02   -1.7939114836e-07 
  16.400000    1.2820353212e-02    1.8199995964e-02   -1.6767542264e-07 
  16.600000    1.2885362943e-02    1.8355221106e-02   -1.6322393868e-07 
  16.800000    1.2966829306e-02    1.8557034707e-02   -1.6986534456e-07 
  17.000000    1.3050808135e-02    1.8770514824e-02   -1.8960696912e-07 
  17.200000    1.3122686105e-02    1.8958117897e-02   -2.2205343464e-07 
  17.400000    1.3169637222e-02    1.9085952878e-02   -2.6361446699e-07 
  17.600000    1.3182794556e-02    1.9129509428e-02   -3.0804935353e-07 
  17.800000    1.3158777155e-02    1.9077917962e-02   -3.4882085528e-07 
  18.000000    1.3100313211e-02    1.8936034358e-02   -3.7947495806e-07 
  18.200000    1.3015873610e-02    1.8723983868e-02   -3.9229874372e-07 
  18.400000    1.2918359301e-02    1.8474175153e-02   -3.8261585043e-07 
  18.600000    1.2823054508e-02    1.8226209584e-02   -3.5086174850e-07 
  18.800000    1.2745170126e-02    1.8020506512e-02   -2.9998122607e-07 
  19.000000    1.2697368929e-02    1.7891641088e-02   -2.3498291008e-07 
  19.200000    1.2687689181e-02    1.7862492033e-02   -1.6277472775e-07 
  19.400000    1.2718189285e-02    1.7940207734e-02   -9.1390648995e-08 
  19.600000    1.2784537210e-02    1.8114701072e-02   -2.8378947518e-08 
  19.800000    1.2876637629e-02    1.8359974426e-02    2.0664482050e-08 
  20.000000    1.2980189578e-02    1.8638112573e-02    5.2559375329e-08 
  20.200000    1.3078936653e-02    1.8905313043e-02    6.6699262194e-08 
  20.400000    1.3157249678e-02    1.9118965586e-02    6.6030372053e-08 
  20.600000    1.3202626202e-02    1.9244601873e-02    5.6038683585e-08 
  20.800000    1.3207700257e-02    1.9261537915e-02    4.3998817777e-08 
  21.000000    1.3171431026e-02    1.9166270509e-02    3.8248656985e-08 
  21.200000    1.3099275956e-02    1.8973058387e-02    4.5093002712e-08 
  21.400000    1.3002315500e-02    1.8711603373e-02    6.8668543456e-08 
  21.600000    1.2895473512e-02    1.8422240880e-02    1.1091109172e-07 
  21.800000    1.2795124921e-02    1.8149452745e-02    1.7038391973e-07 
  22.000000    1.2716489743e-02    1.7934788679e-02    2.4217719967e-07 
  22.200000    1.2671235568e-02    1.7810357721e-02    3.1830555444e-07 
  22.400000    1.2665672649e-02    1.7793924650e-02    3.9039989117e-07 
  22.600000    1.2699841914e-02    1.7886362959e-02    4.5027284884e-07 
  22.800000    1.2767620386e-02    1.8071815849e-02    4.8966820758e-07 
  23.000000    1.2857820419e-02    1.8320467840e-02    5.0396998106e-07 
  23.200000    1.2956061286e-02    1.8593427658e-02    4.9292392533e-07 
  23.400000    1.3047109487e-02    1.8848892908e-02    4.5892301678e-07 
  23.600000    1.3117301008e-02    1.9048622820e-02    4.0728657285e-07 
  23.800000    1.3156625006e-02    1.9163709237e-02    3.4579968463e-07 
  24.000000    1.3160170266e-02    1.9178769016e-02    2.8370515923e-07 
  24.200000    1.3128713462e-02    1.9093967275e-02    2.2965025216e-07 
  24.400000    1.3068388186e-02    1.8924606849e-02    1.9051020540e-07 
  24.600000    1.2989531142e-02    1.8698418895e-02    1.7030506472e-07 
  24.800000    1.2904911488e-02    1.8451011377e-02    1.6899559764e-07 
  25.000000    1.2827649559e-02    1.8220207136e-02    1.8328735347e-07 
  25.200000    1.2769168892e-02    1.8040172582e-02    2.0675460394e-07 
  25.400000    1.2737496594e-02    1.7936241326e-02    2.3061896498e-07 
  25.600000    1.2736153833e-02    1.7921220332e-02    2.4504467368e-07 
  25.800000    1.2763798416e-02    1.7993739586e-02    2.4196669044e-07 
  26.000000    1.2814636372e-02    1.8138867972e-02    2.1658332117e-07 
  26.200000    1.2879505328e-02    1.8330861085e-02    1.6706234070e-07 
  26.400000    1.2947451853e-02    1.8537567510e-02    9.5929749757e-08 
  26.600000    1.3007538777e-02    1.8725764804e-02    8.9961122386e-09 
  26.800000    1.3050590126e-02    1.8866528959e-02   -8.5344364173e-08 
  27.000000    1.3070604025e-02    1.8939771638e-02   -1.7694714987e-07 
  27.200000    1.3065613337e-02    1.8937209282e-02   -2.5596851941e-07 
  27.400000    1.3037872631e-02    1.8863298304e-02   -3.1446964580e-07 
  27.600000    1.2993344266e-02    1.8734029414e-02   -3.4787897088e-07 
  27.800000    1.2940574166e-02    1.8573842132e-02   -3.5575647972e-07 
  28.000000    1.2889165245e-02    1.8411206597e-02   -3.4098708563e-07 
  28.200000    1.2848103461e-02    1.8273678356e-02   -3.0990978047e-07 
  28.400000    1.2824226583e-02    1.8183296306e-02   -2.7126793228e-07 
  28.600000    1.2821092736e-02    1.8153070068e-02   -2.3446054517e-07 
  28.800000    1.2838446670e-02    1.8185143327e-02   -2.0830887345e-07 
  29.000000    1.2872374617e-02    1.8270892256e-02   -1.9913917059e-07 
  29.200000    1.2916102101e-02    1.8392859823e-02   -2.0991138455e-07 
  29.400000    1.2961289706e-02    1.8528130541e-02   -2.3974174053e-07 
  29.600000    1.2999585740e-02    1.8652509909e-02   -2.8374637942e-07 
  29.800000    1.3024141688e-02    1.8744749640e-02   -3.3296907889e-07 
  30.000000    1.3030818421e-02    1.8790108982e-02   -3.7781838042e-07 
  30.200000    1.3018869744e-02    1.8782657172e-02   -4.0895604921e-07 
  30.400000    1.2990995347e-02    1.8725981991e-02   -4.1777023409e-07 
  30.600000    1.2952767640e-02    1.8632251401e-02   -3.9887814625e-07 
  30.800000    1.2911560038e-02    1.8519842900e-02   -3.5025862712e-07 
  31.000000    1.2875187369e-02    1.8410000358e-02   -2.7564904367e-07 
  31.200000    1.2850502026e-02    1.8323108644e-02   -1.8379480225e-07 
  31.400000    1.2842209184e-02    1.8275209799e-02   -8.5550767251e-08 
  31.600000    1.2852090773e-02    1.8275336674e-02    7.0742022083e-09 
  31.800000    1.2878753323e-02    1.8324075470e-02    8.3033337067e-08 
  32.000000    1.2917930323e-02    1.8413552806e-02    1.3434718879e-07 
  32.200000    1.2963248019e-02    1.8528835014e-02    1.5642232941e-07 
  32.400000    1.3007316046e-02    1.8650486801e-02    1.4947591365e-07 
  32.600000    1.3042957385e-02    1.8757862102e-02    1.1908283851e-07 
  32.800000    1.3064371847e-02    1.8832580594e-02    7.5110323304e-08 
  33.000000    1.3068050381e-02    1.8861624549e-02    3.0052841051e-08 
  33.200000    1.3053312451e-02    1.8839558263e-02   -4.0001278743e-09 
  33.400000    1.3022398091e-02    1.8769485948e-02   -1.6615112479e-08 
  33.600000    1.2980104958e-02    1.8662586817e-02   -8.8738473453e-10 
  33.800000    1.2933033505e-02    1.8536303713e-02    4.4953813174e-08 
  34.000000    1.2888553466e-02    1.8411467933e-02    1.1710724447e-07 
  34.200000    1.2853653231e-02    1.8308836094e-02    2.0659380232e-07 
  34.400000    1.2833845791e-02    1.8245620615e-02    3.0106868623e-07 
  34.600000    1.2832296861e-02    1.8232604004e-02    3.8642167717e-07 
  34.800000    1.2849318751e-02    1.8272333719e-02    4.4882188768e-07 
  35.000000    1.2882317123e-02    1.8358705769e-02    4.7776151534e-07 
  35.200000    1.2926203278e-02    1.8478010699e-02    4.6724881256e-07 
  35.400000    1.2974205312e-02    1.8611258254e-02    4.1687520546e-07 
  35.600000    1.3018962443e-02    1.8737359741e-02    3.3268742101e-07 
  35.800000    1.3053719472e-02    1.8836629946e-02    2.2632469295e-07 
  36.000000    1.3073407745e-02    1.8893979067e-02    1.1224980352e-07 
  36.200000    1.3075441379e-02    1.8901269260e-02    5.8500933755e-09 
  36.400000    1.3060075923e-02    1.8858462056e-02   -7.7800687642e-08 
  36.600000    1.3030279147e-02    1.8773385237e-02   -1.2772096842e-07 
  36.800000    1.2991151134e-02    1.8660219285e-02   -1.3873633561e-07 
  37.000000    1.2948994315e-02    1.8537003330e-02   -1.1161344775e-07 
  37.200000    1.2910218148e-02    1.8422619587e-02   -5.3906947823e-08 
  37.400000    1.2880281600e-02    1.8333777115e-02    2.1508761235e-08 
  37.600000    1.2862856839e-02    1.8282495357e-02    9.9086151499e-08 
  37.800000    1.2859353925e-02    1.8274454933e-02    1.6284644191e-07 
  38.000000    1.2868879234e-02    1.8308443567e-02    1.9908984695e-07 
  38.200000    1.2888585014e-02    1.8376912000e-02    1.9771694701e-07 
  38.400000    1.2914321672e-02    1.8467487956e-02    1.5423735744e-07 
  38.600000    1.2941466084e-02    1.8565160811e-02    7.1338463964e-08 
  38.800000    1.2965742981e-02    1.8654760973e-02   -4.0910383289e-08 
  39.000000    1.2983903093e-02    1.8723330773e-02   -1.6747022448e-07 
  39.200000    1.2994140523e-02    1.8762011662e-02   -2.9097904139e-07 
  39.400000    1.2996206017e-02    1.8767200919e-02   -3.9352326746e-07 
  39.600000    1.2991236283e-02    1.8740816461e-02   -4.5983714762e-07 
  39.800000    1.2981356586e-02    1.8689661884e-02   -4.7953571829e-07 
  40.000000    1.2969153917e-02    1.8624034218e-02   -4.4930407601e-07 
  40.200000    1.2957127911e-02    1.8555813508e-02   -3.7336999857e-07 
  40.400000    1.2947225439e-02    1.8496371201e-02   -2.6246905575e-07 
  40.600000    1.2940527333e-02    1.8454651002e-02   -1.3283163383e-07 
  40.800000    1.2937137585e-02    1.8435742807e-02   -3.5818042738e-09 
  41.000000    1.2936278460e-02    1.8440200294e-02    1.0666691484e-07 
  41.200000    1.2936554358e-02    1.8464208769e-02    1.8259309243e-07 
  41.400000    1.2936334916e-02    1.8500553511e-02    2.1461730962e-07 
  41.600000    1.2934180552e-02    1.8540198891e-02    2.0062343598e-07 
  41.800000    1.2929223894e-02    1.8574171813e-02    1.4637668593e-07 
  42.000000    1.2921439702e-02    1.8595379136e-02    6.4323373930e-08 
  42.200000    1.2911745207e-02    1.8600000784e-02   -2.8224068366e-08 
  42.400000    1.2901901789e-02    1.8588188661e-02   -1.1202344911e-07 
  42.600000    1.2894223601e-02    1.8563942260e-02   -1.6919171779e-07 
  42.800000    1.2891133267e-02    1.8534180809e-02   -1.8690948029e-07 
  43.000000    1.2894641169e-02    1.8507225316e-02   -1.5826081191e-07 
  43.200000    1.2905845693e-02    1.8490998460e-02   -8.3606262154e-08 
  43.400000    1.2924552903e-02    1.8491295792e-02    2.8749623586e-08 
  43.600000    1.2949107099e-02    1.8510478602e-02    1.6619743162e-07 
  43.800000    1.2976503938e-02    1.8546870104e-02    3.1139020905e-07 
  44.000000    1.3002766083e-02    1.8594952137e-02    4.4353371997e-07 
  44.200000    1.3023539702e-02    1.8646313185e-02    5.4399398943e-07 
  44.400000    1.3034846101e-02    1.8691184651e-02    5.9902819947e-07 
  44.600000    1.3033833313e-02    1.8720256844e-02    6.0194193088e-07 
  44.800000    1.3019397431e-02    1.8726456610e-02    5.5496777321e-07 
  45.000000    1.2992548065e-02    1.8706360460e-02    4.6729642744e-07 
  45.200000    1.2956415902e-02    1.8660980085e-02    3.5435884916e-07 
  45.400000    1.2915891064e-02    1.8595802396e-02    2.3483780318e-07 
  45.600000    1.2876933934e-02    1.8520071649e-02    1.2760343967e-07 
  45.800000    1.2845661371e-02    1.8445411095e-02    4.9347922795e-08 
  46.000000    1.2827359648e-02    1.8384011863e-02    1.1656036333e-08 
  46.200000    1.2825589192e-02    1.8346676252e-02    2.0228292908e-08 
  46.400000    1.2841540850e-02    1.8341008365e-02    7.1994113142e-08 
  46.600000    1.2873755205e-02    1.8370056969e-02    1.5519380268e-07 
  46.800000    1.2918262821e-02    1.8431619642e-02    2.5261662086e-07 
  47.000000    1.2969130501e-02    1.8518339270e-02    3.4507029492e-07 
  47.200000    1.3019337132e-02    1.8618627504e-02    4.1418295795e-07 
  47.400000    1.3061824018e-02    1.8718291564e-02    4.4533247282e-07 
  47.600000    1.3090542287e-02    1.8802627236e-02    4.3011422634e-07 
  47.800000    1.3101365118e-02    1.8858669024e-02    3.6675595009e-07 
  48.000000    1.3092706133e-02    1.8877251866e-02    2.6044790181e-07 
  48.200000    1.3065750622e-02    1.8854540394e-02    1.2365047925e-07 
  48.400000    1.3024274249e-02    1.8792760027e-02   -2.5608581456e-08 
  48.600000    1.2974083208e-02    1.8699980385e-02   -1.6689584698e-07 
  48.800000    1.2922165672e-02    1.8588977438e-02   -2.8125281884e-07 
  49.000000    1.2875671655e-02    1.8475339017e-02   -3.5423218987e-07 
  49.200000    1.2840899565e-02    1.8375098711e-02   -3.7807866362e-07 
  49.400000    1.2822421319e-02    1.8302301615e-02   -3.5259519153e-07 
  49.600000    1.2822455245e-02    1.8266915694e-02   -2.8540725829e-07 
  49.800000    1.2840603436e-02    1.8273382584e-02   -1.9091659396e-07 
  50.000000    1.2873969985e-02    1.8320034462e-02   -8.7726737423e-08 
  50.200000    1.2917621618e-02    1.8399475014e-02    3.8272075940e-09 
  50.400000    1.2965334464e-02    1.8499825979e-02    6.6904137951e-08 
  50.600000    1.3010514166e-02    1.8606607215e-02    9.1239555134e-08 
  50.800000    1.3047138506e-02    1.8704917840e-02    7.1867233451e-08 
  51.000000    1.3070582557e-02    1.8781578656e-02    1.0872961905e-08 
  51.200000    1.3078228918e-02    1.8826899563e-02   -8.2015726863e-08 
  51.400000    1.3069755773e-02    1.8835865438e-02   -1.9148173001e-07 
  51.600000    1.3047069891e-02    1.8808580594e-02   -2.9786764118e-07 
  51.800000    1.3013931504e-02    1.8749955940e-02   -3.8291634051e-07 
  52.000000    1.2975301351e-02    1.8668766161e-02   -4.3341607606e-07 
  52.200000    1.2936544855e-02    1.8576233781e-02   -4.4058249539e-07 
  52.400000    1.2902629099e-02    1.8484378147e-02   -4.0105915736e-07 
  52.600000    1.2877424047e-02    1.8404370076e-02   -3.1832578991e-07 
  52.800000    1.2863233824e-02    1.8345126750e-02   -2.0439832976e-07 
  53.000000    1.2860607156e-02    1.8312297430e-02   -7.7366640041e-08 
  53.200000    1.2868433494e-02    1.8307771714e-02    4.3834760759e-08 
  53.400000    1.2884297933e-02    1.8329742489e-02    1.4199469631e-07 
  53.600000    1.2905011944e-02    1.8373251032e-02    2.0342652053e-07 
  53.800000    1.2927206718e-02    1.8431126040e-02    2.2012192410e-07 
  54.000000    1.2947877956e-02    1.8495160856e-02    1.9134071356e-07 
