&& imag part epsilon2(omega) tensor, xx, yy,zz xy, xz, yz
0.000000    4.153343e-03 4.154953e-03 3.259175e-03   8.081701e-07 -9.359982e-07 -1.093572e-06
0.010000    4.168298e-03 4.169909e-03 3.269607e-03   8.094991e-07 -9.380540e-07 -1.096166e-06
0.020000    4.183340e-03 4.184954e-03 3.280094e-03   8.108308e-07 -9.401183e-07 -1.098772e-06
0.030000    4.198470e-03 4.200087e-03 3.290636e-03   8.121651e-07 -9.421911e-07 -1.101388e-06
0.040000    4.213690e-03 4.215309e-03 3.301232e-03   8.135021e-07 -9.442726e-07 -1.104016e-06
0.050000    4.228999e-03 4.230621e-03 3.311885e-03   8.148417e-07 -9.463627e-07 -1.106655e-06
0.060000    4.244400e-03 4.246024e-03 3.322594e-03   8.161840e-07 -9.484616e-07 -1.109305e-06
0.070000    4.259891e-03 4.261518e-03 3.333359e-03   8.175289e-07 -9.505694e-07 -1.111967e-06
0.080000    4.275475e-03 4.277104e-03 3.344181e-03   8.188765e-07 -9.526860e-07 -1.114640e-06
0.090000    4.291152e-03 4.292784e-03 3.355060e-03   8.202267e-07 -9.548116e-07 -1.117325e-06
0.100000    4.306923e-03 4.308557e-03 3.365997e-03   8.215796e-07 -9.569462e-07 -1.120021e-06
0.110000    4.322789e-03 4.324425e-03 3.376993e-03   8.229351e-07 -9.590899e-07 -1.122730e-06
0.120000    4.338750e-03 4.340388e-03 3.388047e-03   8.242933e-07 -9.612427e-07 -1.125450e-06
0.130000    4.354807e-03 4.356448e-03 3.399160e-03   8.256540e-07 -9.634048e-07 -1.128182e-06
0.140000    4.370961e-03 4.372605e-03 3.410333e-03   8.270175e-07 -9.655761e-07 -1.130926e-06
0.150000    4.387213e-03 4.388859e-03 3.421566e-03   8.283836e-07 -9.677569e-07 -1.133683e-06
0.160000    4.403564e-03 4.405213e-03 3.432859e-03   8.297523e-07 -9.699470e-07 -1.136451e-06
0.170000    4.420014e-03 4.421666e-03 3.444214e-03   8.311237e-07 -9.721467e-07 -1.139232e-06
0.180000    4.436565e-03 4.438219e-03 3.455630e-03   8.324977e-07 -9.743559e-07 -1.142025e-06
0.190000    4.453218e-03 4.454874e-03 3.467108e-03   8.338743e-07 -9.765748e-07 -1.144831e-06
0.200000    4.469972e-03 4.471631e-03 3.478649e-03   8.352536e-07 -9.788035e-07 -1.147650e-06
0.210000    4.486830e-03 4.488491e-03 3.490252e-03   8.366355e-07 -9.810420e-07 -1.150481e-06
0.220000    4.503791e-03 4.505455e-03 3.501919e-03   8.380201e-07 -9.832904e-07 -1.153325e-06
0.230000    4.520858e-03 4.522525e-03 3.513650e-03   8.394073e-07 -9.855487e-07 -1.156182e-06
0.240000    4.538031e-03 4.539700e-03 3.525445e-03   8.407971e-07 -9.878172e-07 -1.159053e-06
0.250000    4.555310e-03 4.556982e-03 3.537306e-03   8.421895e-07 -9.900958e-07 -1.161936e-06
0.260000    4.572698e-03 4.574372e-03 3.549232e-03   8.435846e-07 -9.923847e-07 -1.164833e-06
0.270000    4.590194e-03 4.591870e-03 3.561224e-03   8.449823e-07 -9.946839e-07 -1.167743e-06
0.280000    4.607800e-03 4.609479e-03 3.573283e-03   8.463826e-07 -9.969935e-07 -1.170667e-06
0.290000    4.625516e-03 4.627198e-03 3.585409e-03   8.477855e-07 -9.993136e-07 -1.173605e-06
0.300000    4.643344e-03 4.645029e-03 3.597603e-03   8.491911e-07 -1.001644e-06 -1.176556e-06
0.310000    4.661285e-03 4.662972e-03 3.609865e-03   8.505992e-07 -1.003985e-06 -1.179521e-06
0.320000    4.679340e-03 4.681029e-03 3.622195e-03   8.520100e-07 -1.006337e-06 -1.182500e-06
0.330000    4.697509e-03 4.699201e-03 3.634594e-03   8.534233e-07 -1.008700e-06 -1.185492e-06
0.340000    4.715793e-03 4.717488e-03 3.647063e-03   8.548393e-07 -1.011073e-06 -1.188498e-06
0.350000    4.734194e-03 4.735892e-03 3.659601e-03   8.562579e-07 -1.013456e-06 -1.191517e-06
0.360000    4.752713e-03 4.754413e-03 3.672210e-03   8.576790e-07 -1.015850e-06 -1.194550e-06
0.370000    4.771349e-03 4.773052e-03 3.684889e-03   8.591027e-07 -1.018255e-06 -1.197596e-06
0.380000    4.790106e-03 4.791811e-03 3.697638e-03   8.605291e-07 -1.020670e-06 -1.200656e-06
0.390000    4.808982e-03 4.810690e-03 3.710460e-03   8.619579e-07 -1.023095e-06 -1.203729e-06
0.400000    4.827981e-03 4.829691e-03 3.723354e-03   8.633894e-07 -1.025532e-06 -1.206815e-06
0.410000    4.847102e-03 4.848815e-03 3.736321e-03   8.648235e-07 -1.027979e-06 -1.209916e-06
0.420000    4.866348e-03 4.868064e-03 3.749363e-03   8.662601e-07 -1.030438e-06 -1.213032e-06
0.430000    4.885719e-03 4.887437e-03 3.762479e-03   8.676992e-07 -1.032909e-06 -1.216162e-06
0.440000    4.905217e-03 4.906938e-03 3.775670e-03   8.691409e-07 -1.035391e-06 -1.219307e-06
0.450000    4.924843e-03 4.926567e-03 3.788938e-03   8.705852e-07 -1.037884e-06 -1.222468e-06
0.460000    4.944598e-03 4.946325e-03 3.802283e-03   8.720319e-07 -1.040390e-06 -1.225644e-06
0.470000    4.964484e-03 4.966213e-03 3.815706e-03   8.734812e-07 -1.042908e-06 -1.228836e-06
0.480000    4.984501e-03 4.986233e-03 3.829207e-03   8.749331e-07 -1.045438e-06 -1.232044e-06
0.490000    5.004651e-03 5.006386e-03 3.842787e-03   8.763874e-07 -1.047980e-06 -1.235268e-06
0.500000    5.024936e-03 5.026673e-03 3.856447e-03   8.778443e-07 -1.050535e-06 -1.238507e-06
0.510000    5.045356e-03 5.047095e-03 3.870187e-03   8.793036e-07 -1.053102e-06 -1.241763e-06
0.520000    5.065912e-03 5.067655e-03 3.884008e-03   8.807655e-07 -1.055681e-06 -1.245036e-06
0.530000    5.086607e-03 5.088352e-03 3.897910e-03   8.822298e-07 -1.058273e-06 -1.248324e-06
0.540000    5.107441e-03 5.109189e-03 3.911895e-03   8.836966e-07 -1.060878e-06 -1.251629e-06
0.550000    5.128416e-03 5.130166e-03 3.925963e-03   8.851659e-07 -1.063496e-06 -1.254951e-06
0.560000    5.149532e-03 5.151285e-03 3.940114e-03   8.866376e-07 -1.066126e-06 -1.258290e-06
0.570000    5.170792e-03 5.172548e-03 3.954350e-03   8.881118e-07 -1.068770e-06 -1.261645e-06
0.580000    5.192197e-03 5.193955e-03 3.968671e-03   8.895884e-07 -1.071427e-06 -1.265017e-06
0.590000    5.213748e-03 5.215509e-03 3.983078e-03   8.910675e-07 -1.074097e-06 -1.268407e-06
0.600000    5.235446e-03 5.237210e-03 3.997572e-03   8.925489e-07 -1.076780e-06 -1.271814e-06
0.610000    5.257294e-03 5.259060e-03 4.012152e-03   8.940328e-07 -1.079477e-06 -1.275238e-06
0.620000    5.279292e-03 5.281061e-03 4.026821e-03   8.955191e-07 -1.082187e-06 -1.278680e-06
0.630000    5.301442e-03 5.303214e-03 4.041579e-03   8.970077e-07 -1.084911e-06 -1.282140e-06
0.640000    5.323745e-03 5.325520e-03 4.056426e-03   8.984987e-07 -1.087648e-06 -1.285617e-06
0.650000    5.346203e-03 5.347981e-03 4.071363e-03   8.999921e-07 -1.090400e-06 -1.289113e-06
0.660000    5.368818e-03 5.370599e-03 4.086392e-03   9.014878e-07 -1.093166e-06 -1.292626e-06
0.670000    5.391591e-03 5.393374e-03 4.101513e-03   9.029859e-07 -1.095945e-06 -1.296158e-06
0.680000    5.414524e-03 5.416310e-03 4.116726e-03   9.044863e-07 -1.098739e-06 -1.299709e-06
0.690000    5.437617e-03 5.439406e-03 4.132033e-03   9.059890e-07 -1.101548e-06 -1.303278e-06
0.700000    5.460874e-03 5.462665e-03 4.147434e-03   9.074940e-07 -1.104370e-06 -1.306865e-06
0.710000    5.484295e-03 5.486089e-03 4.162931e-03   9.090012e-07 -1.107208e-06 -1.310472e-06
0.720000    5.507883e-03 5.509680e-03 4.178524e-03   9.105108e-07 -1.110060e-06 -1.314098e-06
0.730000    5.531638e-03 5.533437e-03 4.194213e-03   9.120225e-07 -1.112927e-06 -1.317743e-06
0.740000    5.555562e-03 5.557365e-03 4.210001e-03   9.135366e-07 -1.115809e-06 -1.321408e-06
0.750000    5.579658e-03 5.581464e-03 4.225887e-03   9.150528e-07 -1.118707e-06 -1.325093e-06
0.760000    5.603928e-03 5.605736e-03 4.241873e-03   9.165712e-07 -1.121619e-06 -1.328797e-06
0.770000    5.628371e-03 5.630182e-03 4.257959e-03   9.180918e-07 -1.124547e-06 -1.332521e-06
0.780000    5.652992e-03 5.654806e-03 4.274147e-03   9.196146e-07 -1.127491e-06 -1.336265e-06
0.790000    5.677791e-03 5.679608e-03 4.290437e-03   9.211395e-07 -1.130450e-06 -1.340030e-06
0.800000    5.702770e-03 5.704590e-03 4.306831e-03   9.226666e-07 -1.133426e-06 -1.343815e-06
0.810000    5.727932e-03 5.729754e-03 4.323329e-03   9.241957e-07 -1.136417e-06 -1.347621e-06
0.820000    5.753278e-03 5.755102e-03 4.339932e-03   9.257270e-07 -1.139424e-06 -1.351449e-06
0.830000    5.778809e-03 5.780637e-03 4.356641e-03   9.272603e-07 -1.142448e-06 -1.355297e-06
0.840000    5.804529e-03 5.806359e-03 4.373457e-03   9.287957e-07 -1.145488e-06 -1.359166e-06
0.850000    5.830438e-03 5.832272e-03 4.390382e-03   9.303331e-07 -1.148545e-06 -1.363057e-06
0.860000    5.856540e-03 5.858376e-03 4.407415e-03   9.318725e-07 -1.151618e-06 -1.366970e-06
0.870000    5.882836e-03 5.884675e-03 4.424559e-03   9.334139e-07 -1.154708e-06 -1.370905e-06
0.880000    5.909327e-03 5.911169e-03 4.441814e-03   9.349573e-07 -1.157816e-06 -1.374861e-06
0.890000    5.936017e-03 5.937862e-03 4.459182e-03   9.365026e-07 -1.160941e-06 -1.378841e-06
0.900000    5.962907e-03 5.964755e-03 4.476662e-03   9.380498e-07 -1.164083e-06 -1.382842e-06
0.910000    5.990000e-03 5.991850e-03 4.494257e-03   9.395989e-07 -1.167243e-06 -1.386867e-06
0.920000    6.017297e-03 6.019150e-03 4.511968e-03   9.411498e-07 -1.170420e-06 -1.390915e-06
0.930000    6.044801e-03 6.046657e-03 4.529795e-03   9.427026e-07 -1.173615e-06 -1.394986e-06
0.940000    6.072514e-03 6.074373e-03 4.547740e-03   9.442573e-07 -1.176829e-06 -1.399080e-06
0.950000    6.100439e-03 6.102301e-03 4.565804e-03   9.458137e-07 -1.180061e-06 -1.403198e-06
0.960000    6.128578e-03 6.130442e-03 4.583988e-03   9.473718e-07 -1.183311e-06 -1.407340e-06
0.970000    6.156932e-03 6.158800e-03 4.602293e-03   9.489317e-07 -1.186580e-06 -1.411506e-06
0.980000    6.185505e-03 6.187375e-03 4.620720e-03   9.504933e-07 -1.189867e-06 -1.415697e-06
0.990000    6.214299e-03 6.216172e-03 4.639271e-03   9.520565e-07 -1.193174e-06 -1.419912e-06
1.000000    6.243316e-03 6.245192e-03 4.657947e-03   9.536214e-07 -1.196500e-06 -1.424152e-06
1.010000    6.272558e-03 6.274438e-03 4.676748e-03   9.551879e-07 -1.199845e-06 -1.428417e-06
1.020000    6.302030e-03 6.303912e-03 4.695677e-03   9.567560e-07 -1.203210e-06 -1.432708e-06
1.030000    6.331732e-03 6.333617e-03 4.714734e-03   9.583256e-07 -1.206594e-06 -1.437024e-06
1.040000    6.361667e-03 6.363555e-03 4.733921e-03   9.598967e-07 -1.209999e-06 -1.441366e-06
1.050000    6.391839e-03 6.393730e-03 4.753239e-03   9.614693e-07 -1.213424e-06 -1.445734e-06
1.060000    6.422249e-03 6.424143e-03 4.772689e-03   9.630433e-07 -1.216869e-06 -1.450129e-06
1.070000    6.452901e-03 6.454798e-03 4.792273e-03   9.646187e-07 -1.220334e-06 -1.454551e-06
1.080000    6.483798e-03 6.485697e-03 4.811992e-03   9.661955e-07 -1.223821e-06 -1.458999e-06
1.090000    6.514941e-03 6.516843e-03 4.831847e-03   9.677736e-07 -1.227328e-06 -1.463475e-06
1.100000    6.546334e-03 6.548239e-03 4.851840e-03   9.693530e-07 -1.230857e-06 -1.467979e-06
1.110000    6.577980e-03 6.579888e-03 4.871972e-03   9.709336e-07 -1.234407e-06 -1.472510e-06
1.120000    6.609882e-03 6.611793e-03 4.892245e-03   9.725154e-07 -1.237979e-06 -1.477069e-06
1.130000    6.642042e-03 6.643956e-03 4.912659e-03   9.740984e-07 -1.241573e-06 -1.481657e-06
1.140000    6.674465e-03 6.676381e-03 4.933217e-03   9.756825e-07 -1.245189e-06 -1.486274e-06
1.150000    6.707151e-03 6.709071e-03 4.953920e-03   9.772676e-07 -1.248827e-06 -1.490919e-06
1.160000    6.740106e-03 6.742029e-03 4.974769e-03   9.788538e-07 -1.252488e-06 -1.495594e-06
1.170000    6.773332e-03 6.775258e-03 4.995766e-03   9.804410e-07 -1.256171e-06 -1.500299e-06
1.180000    6.806832e-03 6.808761e-03 5.016912e-03   9.820291e-07 -1.259878e-06 -1.505033e-06
1.190000    6.840610e-03 6.842541e-03 5.038210e-03   9.836181e-07 -1.263608e-06 -1.509798e-06
1.200000    6.874668e-03 6.876603e-03 5.059660e-03   9.852079e-07 -1.267362e-06 -1.514594e-06
1.210000    6.909011e-03 6.910948e-03 5.081264e-03   9.867985e-07 -1.271139e-06 -1.519421e-06
1.220000    6.943641e-03 6.945582e-03 5.103024e-03   9.883898e-07 -1.274941e-06 -1.524279e-06
1.230000    6.978563e-03 6.980506e-03 5.124941e-03   9.899817e-07 -1.278767e-06 -1.529168e-06
1.240000    7.013779e-03 7.015725e-03 5.147017e-03   9.915743e-07 -1.282618e-06 -1.534090e-06
1.250000    7.049293e-03 7.051242e-03 5.169254e-03   9.931675e-07 -1.286493e-06 -1.539044e-06
1.260000    7.085109e-03 7.087061e-03 5.191654e-03   9.947611e-07 -1.290394e-06 -1.544030e-06
1.270000    7.121230e-03 7.123185e-03 5.214218e-03   9.963552e-07 -1.294320e-06 -1.549050e-06
1.280000    7.157661e-03 7.159619e-03 5.236948e-03   9.979497e-07 -1.298272e-06 -1.554103e-06
1.290000    7.194404e-03 7.196365e-03 5.259846e-03   9.995445e-07 -1.302250e-06 -1.559190e-06
1.300000    7.231465e-03 7.233429e-03 5.282913e-03   1.001140e-06 -1.306254e-06 -1.564312e-06
1.310000    7.268847e-03 7.270814e-03 5.306152e-03   1.002735e-06 -1.310285e-06 -1.569468e-06
1.320000    7.306553e-03 7.308523e-03 5.329565e-03   1.004330e-06 -1.314342e-06 -1.574659e-06
1.330000    7.344589e-03 7.346561e-03 5.353152e-03   1.005926e-06 -1.318427e-06 -1.579885e-06
1.340000    7.382958e-03 7.384933e-03 5.376917e-03   1.007521e-06 -1.322540e-06 -1.585147e-06
1.350000    7.421664e-03 7.423642e-03 5.400861e-03   1.009116e-06 -1.326680e-06 -1.590446e-06
1.360000    7.460711e-03 7.462693e-03 5.424986e-03   1.010711e-06 -1.330848e-06 -1.595781e-06
1.370000    7.500105e-03 7.502089e-03 5.449294e-03   1.012306e-06 -1.335045e-06 -1.601153e-06
1.380000    7.539849e-03 7.541836e-03 5.473788e-03   1.013901e-06 -1.339271e-06 -1.606562e-06
1.390000    7.579947e-03 7.581938e-03 5.498468e-03   1.015495e-06 -1.343526e-06 -1.612010e-06
1.400000    7.620406e-03 7.622399e-03 5.523338e-03   1.017089e-06 -1.347811e-06 -1.617496e-06
1.410000    7.661228e-03 7.663224e-03 5.548399e-03   1.018682e-06 -1.352125e-06 -1.623021e-06
1.420000    7.702419e-03 7.704418e-03 5.573654e-03   1.020274e-06 -1.356470e-06 -1.628586e-06
1.430000    7.743984e-03 7.745986e-03 5.599104e-03   1.021866e-06 -1.360845e-06 -1.634190e-06
1.440000    7.785927e-03 7.787932e-03 5.624752e-03   1.023457e-06 -1.365251e-06 -1.639835e-06
1.450000    7.828254e-03 7.830262e-03 5.650600e-03   1.025047e-06 -1.369688e-06 -1.645520e-06
1.460000    7.870970e-03 7.872980e-03 5.676650e-03   1.026636e-06 -1.374158e-06 -1.651247e-06
1.470000    7.914079e-03 7.916092e-03 5.702905e-03   1.028224e-06 -1.378659e-06 -1.657016e-06
1.480000    7.957587e-03 7.959604e-03 5.729367e-03   1.029811e-06 -1.383193e-06 -1.662827e-06
1.490000    8.001499e-03 8.003519e-03 5.756039e-03   1.031396e-06 -1.387759e-06 -1.668682e-06
1.500000    8.045821e-03 8.047844e-03 5.782923e-03   1.032980e-06 -1.392359e-06 -1.674579e-06
1.510000    8.090559e-03 8.092584e-03 5.810022e-03   1.034562e-06 -1.396993e-06 -1.680520e-06
1.520000    8.135717e-03 8.137746e-03 5.837337e-03   1.036143e-06 -1.401661e-06 -1.686506e-06
1.530000    8.181302e-03 8.183334e-03 5.864873e-03   1.037722e-06 -1.406363e-06 -1.692537e-06
1.540000    8.227320e-03 8.229354e-03 5.892631e-03   1.039300e-06 -1.411100e-06 -1.698613e-06
1.550000    8.273776e-03 8.275813e-03 5.920615e-03   1.040875e-06 -1.415872e-06 -1.704736e-06
1.560000    8.320676e-03 8.322716e-03 5.948826e-03   1.042448e-06 -1.420680e-06 -1.710905e-06
1.570000    8.368027e-03 8.370070e-03 5.977267e-03   1.044019e-06 -1.425525e-06 -1.717122e-06
1.580000    8.415834e-03 8.417880e-03 6.005942e-03   1.045587e-06 -1.430406e-06 -1.723386e-06
1.590000    8.464105e-03 8.466154e-03 6.034853e-03   1.047154e-06 -1.435324e-06 -1.729699e-06
1.600000    8.512846e-03 8.514898e-03 6.064004e-03   1.048717e-06 -1.440280e-06 -1.736061e-06
1.610000    8.562063e-03 8.564118e-03 6.093396e-03   1.050278e-06 -1.445274e-06 -1.742473e-06
1.620000    8.611763e-03 8.613821e-03 6.123032e-03   1.051836e-06 -1.450306e-06 -1.748936e-06
1.630000    8.661953e-03 8.664014e-03 6.152917e-03   1.053391e-06 -1.455378e-06 -1.755450e-06
1.640000    8.712640e-03 8.714703e-03 6.183053e-03   1.054942e-06 -1.460490e-06 -1.762015e-06
1.650000    8.763831e-03 8.765897e-03 6.213443e-03   1.056490e-06 -1.465641e-06 -1.768633e-06
1.660000    8.815533e-03 8.817602e-03 6.244090e-03   1.058035e-06 -1.470833e-06 -1.775304e-06
1.670000    8.867755e-03 8.869826e-03 6.274997e-03   1.059577e-06 -1.476067e-06 -1.782029e-06
1.680000    8.920502e-03 8.922577e-03 6.306169e-03   1.061114e-06 -1.481342e-06 -1.788809e-06
1.690000    8.973783e-03 8.975861e-03 6.337607e-03   1.062647e-06 -1.486659e-06 -1.795644e-06
1.700000    9.027606e-03 9.029686e-03 6.369316e-03   1.064177e-06 -1.492019e-06 -1.802535e-06
1.710000    9.081979e-03 9.084062e-03 6.401299e-03   1.065702e-06 -1.497423e-06 -1.809484e-06
1.720000    9.136910e-03 9.138996e-03 6.433559e-03   1.067222e-06 -1.502871e-06 -1.816489e-06
1.730000    9.192407e-03 9.194495e-03 6.466100e-03   1.068738e-06 -1.508363e-06 -1.823554e-06
1.740000    9.248478e-03 9.250570e-03 6.498926e-03   1.070249e-06 -1.513901e-06 -1.830677e-06
1.750000    9.305133e-03 9.307227e-03 6.532040e-03   1.071754e-06 -1.519484e-06 -1.837861e-06
1.760000    9.362380e-03 9.364477e-03 6.565447e-03   1.073255e-06 -1.525114e-06 -1.845105e-06
1.770000    9.420228e-03 9.422328e-03 6.599149e-03   1.074750e-06 -1.530791e-06 -1.852412e-06
1.780000    9.478686e-03 9.480789e-03 6.633151e-03   1.076239e-06 -1.536516e-06 -1.859781e-06
1.790000    9.537764e-03 9.539870e-03 6.667457e-03   1.077723e-06 -1.542289e-06 -1.867213e-06
1.800000    9.597471e-03 9.599579e-03 6.702070e-03   1.079200e-06 -1.548111e-06 -1.874710e-06
1.810000    9.657817e-03 9.659928e-03 6.736996e-03   1.080671e-06 -1.553983e-06 -1.882272e-06
1.820000    9.718811e-03 9.720925e-03 6.772237e-03   1.082135e-06 -1.559906e-06 -1.889901e-06
1.830000    9.780465e-03 9.782581e-03 6.807799e-03   1.083592e-06 -1.565879e-06 -1.897597e-06
1.840000    9.842787e-03 9.844906e-03 6.843686e-03   1.085043e-06 -1.571905e-06 -1.905361e-06
1.850000    9.905790e-03 9.907911e-03 6.879902e-03   1.086486e-06 -1.577983e-06 -1.913194e-06
1.860000    9.969483e-03 9.971607e-03 6.916452e-03   1.087921e-06 -1.584114e-06 -1.921097e-06
1.870000    1.003388e-02 1.003600e-02 6.953339e-03   1.089348e-06 -1.590300e-06 -1.929072e-06
1.880000    1.009898e-02 1.010111e-02 6.990570e-03   1.090767e-06 -1.596541e-06 -1.937118e-06
1.890000    1.016482e-02 1.016695e-02 7.028148e-03   1.092178e-06 -1.602837e-06 -1.945239e-06
1.900000    1.023138e-02 1.023352e-02 7.066079e-03   1.093580e-06 -1.609190e-06 -1.953433e-06
1.910000    1.029870e-02 1.030084e-02 7.104367e-03   1.094973e-06 -1.615600e-06 -1.961703e-06
1.920000    1.036677e-02 1.036891e-02 7.143017e-03   1.096357e-06 -1.622069e-06 -1.970050e-06
1.930000    1.043562e-02 1.043776e-02 7.182035e-03   1.097730e-06 -1.628596e-06 -1.978475e-06
1.940000    1.050525e-02 1.050740e-02 7.221426e-03   1.099094e-06 -1.635183e-06 -1.986978e-06
1.950000    1.057569e-02 1.057783e-02 7.261195e-03   1.100448e-06 -1.641832e-06 -1.995562e-06
1.960000    1.064693e-02 1.064908e-02 7.301347e-03   1.101791e-06 -1.648542e-06 -2.004227e-06
1.970000    1.071900e-02 1.072115e-02 7.341889e-03   1.103122e-06 -1.655314e-06 -2.012975e-06
1.980000    1.079191e-02 1.079406e-02 7.382825e-03   1.104443e-06 -1.662150e-06 -2.021807e-06
1.990000    1.086567e-02 1.086782e-02 7.424162e-03   1.105751e-06 -1.669051e-06 -2.030724e-06
2.000000    1.094030e-02 1.094245e-02 7.465905e-03   1.107047e-06 -1.676018e-06 -2.039728e-06
2.010000    1.101581e-02 1.101797e-02 7.508060e-03   1.108331e-06 -1.683050e-06 -2.048819e-06
2.020000    1.109222e-02 1.109438e-02 7.550634e-03   1.109601e-06 -1.690151e-06 -2.058000e-06
2.030000    1.116954e-02 1.117171e-02 7.593632e-03   1.110859e-06 -1.697320e-06 -2.067271e-06
2.040000    1.124779e-02 1.124996e-02 7.637061e-03   1.112102e-06 -1.704558e-06 -2.076635e-06
2.050000    1.132699e-02 1.132916e-02 7.680928e-03   1.113331e-06 -1.711867e-06 -2.086092e-06
2.060000    1.140715e-02 1.140933e-02 7.725239e-03   1.114545e-06 -1.719248e-06 -2.095644e-06
2.070000    1.148829e-02 1.149047e-02 7.770000e-03   1.115744e-06 -1.726702e-06 -2.105293e-06
2.080000    1.157043e-02 1.157261e-02 7.815220e-03   1.116927e-06 -1.734231e-06 -2.115039e-06
2.090000    1.165358e-02 1.165576e-02 7.860904e-03   1.118093e-06 -1.741834e-06 -2.124886e-06
2.100000    1.173777e-02 1.173995e-02 7.907060e-03   1.119243e-06 -1.749514e-06 -2.134834e-06
2.110000    1.182301e-02 1.182519e-02 7.953695e-03   1.120376e-06 -1.757271e-06 -2.144885e-06
