
  &&electric field in cartesian unit:  1.000000e-03  0.000000e+00  0.000000e+00 
  &&current at groud state:   -4.7268892837e-04    3.6548763472e-03   -4.2178048148e-09 nonzero due to kpoint sampling
  0.000000   -4.9929342228e-04    3.6362726678e-03    4.6082658820e-08 
  0.200000   -5.5015469168e-04    3.6004061081e-03    1.8191150324e-07 
  0.400000   -5.9474827190e-04    3.5689291001e-03    3.1516783522e-07 
  0.600000   -6.2984627275e-04    3.5441092953e-03    4.4562189654e-07 
  0.800000   -6.5354868596e-04    3.5272806285e-03    5.7393080496e-07 
  1.000000   -6.6553884936e-04    3.5186646482e-03    7.0125649821e-07 
  1.200000   -6.6716967300e-04    3.5173114636e-03    8.2890078758e-07 
  1.400000   -6.6129337957e-04    3.5212213388e-03    9.5761066732e-07 
  1.600000   -6.5189967799e-04    3.5275999471e-03    1.0870445275e-06 
  1.800000   -6.4350929732e-04    3.5332844841e-03    1.2148858357e-06 
  2.000000   -6.4048405062e-04    3.5352265022e-03    1.3364005580e-06 
  2.200000   -6.4632538193e-04    3.5309814780e-03    1.4443626564e-06 
  2.400000   -6.6304102275e-04    3.5191503312e-03    1.5294040436e-06 
  2.600000   -6.9077906996e-04    3.4996333229e-03    1.5811201353e-06 
  2.800000   -7.2770724130e-04    3.4737137063e-03    1.5897580321e-06 
  3.000000   -7.7022112018e-04    3.4439121015e-03    1.5479118142e-06 
  3.200000   -8.1345954869e-04    3.4136270795e-03    1.4522716175e-06 
  3.400000   -8.5199409069e-04    3.3866553056e-03    1.3050573868e-06 
  3.600000   -8.8069017857e-04    3.3665900433e-03    1.1148244911e-06 
  3.800000   -8.9548867108e-04    3.3562751789e-03    8.9589126092e-07 
  4.000000   -8.9407198824e-04    3.3573369377e-03    6.6663498290e-07 
  4.200000   -8.7621027306e-04    3.3699398571e-03    4.4700131486e-07 
  4.400000   -8.4383372412e-04    3.3927344716e-03    2.5545262963e-07 
  4.600000   -8.0077573799e-04    3.4230348507e-03    1.0572317050e-07 
  4.800000   -7.5223197392e-04    3.4571967624e-03    4.0816515675e-09 
  5.000000   -7.0407342336e-04    3.4910989136e-03   -5.1914638657e-08 
  5.200000   -6.6201260212e-04    3.5207296998e-03   -7.3623072202e-08 
  5.400000   -6.3084236222e-04    3.5427229911e-03   -7.9688442537e-08 
  5.600000   -6.1375893859e-04    3.5548362359e-03   -9.3128087056e-08 
  5.800000   -6.1195202012e-04    3.5562387253e-03   -1.3728325820e-07 
  6.000000   -6.2441275237e-04    3.5476451525e-03   -2.3149890246e-07 
  6.200000   -6.4803437747e-04    3.5312422092e-03   -3.8722041044e-07 
  6.400000   -6.7799684443e-04    3.5104156401e-03   -6.0529210123e-07 
  6.600000   -7.0834652595e-04    3.4893420083e-03   -8.7527989704e-07 
  6.800000   -7.3279129582e-04    3.4724287593e-03   -1.1760061371e-06 
  7.000000   -7.4558002295e-04    3.4636975304e-03   -1.4781666525e-06 
  7.200000   -7.4229024725e-04    3.4662343370e-03   -1.7484031217e-06 
  7.400000   -7.2051562377e-04    3.4817105441e-03   -1.9541096492e-06 
  7.600000   -6.8029446901e-04    3.5100872132e-03   -2.0682876810e-06 
  7.800000   -6.2421205301e-04    3.5495464321e-03   -2.0740032398e-06 
  8.000000   -5.5714157382e-04    3.5966729299e-03   -1.9674580717e-06 
  8.200000   -4.8564255406e-04    3.6468752242e-03   -1.7590801144e-06 
  8.400000   -4.1708913398e-04    3.6949939433e-03   -1.4729305275e-06 
  8.600000   -3.5864977309e-04    3.7360136969e-03   -1.1437917875e-06 
  8.800000   -3.1626981468e-04    3.7657737116e-03   -8.1263753892e-07 
  9.000000   -2.9381268084e-04    3.7815679149e-03   -5.2071036878e-07 
  9.200000   -2.9249541053e-04    3.7825409910e-03   -3.0301490469e-07 
  9.400000   -3.1070806434e-04    3.7698169240e-03   -1.8271437585e-07 
  9.600000   -3.4424499635e-04    3.7463389989e-03   -1.6676944737e-07 
  9.800000   -3.8691068676e-04    3.7164473587e-03   -2.4411168328e-07 
  10.000000   -4.3140483180e-04    3.6852595558e-03   -3.8654748685e-07 
  10.200000   -4.7035036109e-04    3.6579494459e-03   -5.5225643427e-07 
  10.400000   -4.9731083823e-04    3.6390318641e-03   -6.9197728587e-07 
  10.600000   -5.0765460213e-04    3.6317557414e-03   -7.5721246703e-07 
  10.800000   -4.9914850786e-04    3.6376858613e-03   -7.0847402700e-07 
  11.000000   -4.7221109433e-04    3.6565247179e-03   -5.2228966395e-07 
  11.200000   -4.2980622064e-04    3.6861879506e-03   -1.9657975733e-07 
  11.400000   -3.7700439163e-04    3.7231140701e-03    2.4763010411e-07 
  11.600000   -3.2028188607e-04    3.7627597977e-03    7.6859242848e-07 
  11.800000   -2.6665392053e-04    3.8002095379e-03    1.3092917231e-06 
  12.000000   -2.2275682508e-04    3.8308195269e-03    1.8058775452e-06 
  12.200000   -1.9399448391e-04    3.8508149999e-03    2.1976188100e-06 
  12.400000   -1.8385274192e-04    3.8577677670e-03    2.4364324674e-06 
  12.600000   -1.9346704990e-04    3.8508952513e-03    2.4947439668e-06 
  12.800000   -2.2149721832e-04    3.8311450289e-03    2.3700394270e-06 
  13.000000   -2.6432587252e-04    3.8010534164e-03    2.0856096336e-06 
  13.200000   -3.1655710567e-04    3.7643958197e-03    1.6876320171e-06 
  13.400000   -3.7175076326e-04    3.7256742175e-03    1.2383231968e-06 
  13.600000   -4.2329391362e-04    3.6895095272e-03    8.0647709035e-07 
  13.800000   -4.6528944698e-04    3.6600227171e-03    4.5708848134e-07 
  14.000000   -4.9333511713e-04    3.6402917993e-03    2.4131721221e-07 
  14.200000   -5.0508052410e-04    3.6319628575e-03    1.8837028611e-07 
  14.400000   -5.0048167475e-04    3.6350711943e-03    3.0053500856e-07 
  14.600000   -4.8171899099e-04    3.6480969953e-03    5.5217297827e-07 
  14.800000   -4.5279860501e-04    3.6682421838e-03    8.9288190526e-07 
  15.000000   -4.1890502806e-04    3.6918811186e-03    1.2546597357e-06 
  15.200000   -3.8561293079e-04    3.7151130074e-03    1.5621776017e-06 
  15.400000   -3.5808515527e-04    3.7343242144e-03    1.7442794542e-06 
  15.600000   -3.4037916064e-04    3.7466741893e-03    1.7454209084e-06 
  15.800000   -3.3496159173e-04    3.7504378081e-03    1.5352305509e-06 
  16.000000   -3.4248766409e-04    3.7451592993e-03    1.1147402102e-06 
  16.200000   -3.6185939694e-04    3.7316111738e-03    5.1750825869e-07 
  16.400000   -3.9052866344e-04    3.7115813613e-03   -1.9439506978e-07 
  16.600000   -4.2497353249e-04    3.6875364698e-03   -9.3886146341e-07 
  16.800000   -4.6126066075e-04    3.6622259004e-03   -1.6259989747e-06 
  17.000000   -4.9560125202e-04    3.6382917199e-03   -2.1720808652e-06 
  17.200000   -5.2482122281e-04    3.6179402737e-03   -2.5127073067e-06 
  17.400000   -5.4668974377e-04    3.6027151461e-03   -2.6133149391e-06 
  17.600000   -5.6007911500e-04    3.5933896925e-03   -2.4751362055e-06 
  17.800000   -5.6495727983e-04    3.5899766164e-03   -2.1352772135e-06 
  18.000000   -5.6223756135e-04    3.5918367258e-03   -1.6610210468e-06 
  18.200000   -5.5352676471e-04    3.5978563785e-03   -1.1391821632e-06 
  18.400000   -5.4082034515e-04    3.6066591371e-03   -6.6228909960e-07 
  18.600000   -5.2619307998e-04    3.6168187327e-03   -3.1359795842e-07 
  18.800000   -5.1152876809e-04    3.6270419507e-03   -1.5376734179e-07 
  19.000000   -4.9832155835e-04    3.6363022185e-03   -2.1119869334e-07 
  19.200000   -4.8756788853e-04    3.6439118232e-03   -4.7731205740e-07 
  19.400000   -4.7975384239e-04    3.6495284939e-03   -9.0783240545e-07 
  19.600000   -4.7492766566e-04    3.6531049548e-03   -1.4293963946e-06 
  19.800000   -4.7283405743e-04    3.6547980273e-03   -1.9510617475e-06 
  20.000000   -4.7307720991e-04    3.6548588235e-03   -2.3785354315e-06 
  20.200000   -4.7527528414e-04    3.6535287923e-03   -2.6286385412e-06 
  20.400000   -4.7917044110e-04    3.6509657630e-03   -2.6425539940e-06 
  20.600000   -4.8467069837e-04    3.6472181442e-03   -2.3955016001e-06 
  20.800000   -4.9181172066e-04    3.6422530520e-03   -1.9010012019e-06 
  21.000000   -5.0064717737e-04    3.6360325504e-03   -1.2094890450e-06 
  21.200000   -5.1109573753e-04    3.6286197525e-03   -4.0114434266e-07 
  21.400000   -5.2278621518e-04    3.6202865919e-03    4.2588590729e-07 
  21.600000   -5.3494762077e-04    3.6115910029e-03    1.1701287411e-06 
  21.800000   -5.4638363789e-04    3.6033931218e-03    1.7424763127e-06 
  22.000000   -5.5555804719e-04    3.5967938917e-03    2.0799546063e-06 
  22.200000   -5.6079230788e-04    3.5929940338e-03    2.1557448588e-06 
  22.400000   -5.6055018128e-04    3.5930910321e-03    1.9836808988e-06 
  22.600000   -5.5376058299e-04    3.5978491795e-03    1.6161289938e-06 
  22.800000   -5.4011468798e-04    3.6074873713e-03    1.1354988040e-06 
  23.000000   -5.2027203030e-04    3.6215340445e-03    6.4124844979e-07 
  23.200000   -4.9592002462e-04    3.6387854073e-03    2.3349065286e-07 
  23.400000   -4.6965713201e-04    3.6573887888e-03   -3.7688572468e-09 
  23.600000   -4.4470235756e-04    3.6750521887e-03   -1.6431595878e-08 
  23.800000   -4.2446525618e-04    3.6893517552e-03    2.1068414405e-07 
  24.000000   -4.1204051817e-04    3.6980926223e-03    6.5119355503e-07 
  24.200000   -4.0970779536e-04    3.6996646588e-03    1.2410280134e-06 
  24.400000   -4.1852125457e-04    3.6933325389e-03    1.8889197519e-06 
  24.600000   -4.3806146660e-04    3.6794091311e-03    2.4912025906e-06 
  24.800000   -4.6639676550e-04    3.6592789763e-03    2.9483573707e-06 
  25.000000   -5.0026980429e-04    3.6352620617e-03    3.1812697007e-06 
  25.200000   -5.3548950507e-04    3.6103322657e-03    3.1439340706e-06 
  25.400000   -5.6747608735e-04    3.5877293110e-03    2.8306075284e-06 
  25.600000   -5.9188405297e-04    3.5705181658e-03    2.2766974551e-06 
  25.800000   -6.0521524235e-04    3.5611573581e-03    1.5531029889e-06 
  26.000000   -6.0533432312e-04    3.5611380462e-03    7.5500752433e-07 
  26.200000   -5.9181173952e-04    3.5707458235e-03   -1.3059123022e-08 
  26.400000   -5.6604175109e-04    3.5889812140e-03   -6.5352781919e-07 
  26.600000   -5.3111287001e-04    3.6136540017e-03   -1.0909142824e-06 
  26.800000   -4.9144103673e-04    3.6416435873e-03   -1.2834133409e-06 
  27.000000   -4.5220826961e-04    3.6692951439e-03   -1.2291629131e-06 
  27.200000   -4.1867735271e-04    3.6929020840e-03   -9.6619596771e-07 
  27.400000   -3.9547276087e-04    3.7092117027e-03   -5.6606738272e-07 
  27.600000   -3.8592648876e-04    3.7158848902e-03   -1.2212679434e-07 
  27.800000   -3.9158279110e-04    3.7118439523e-03    2.6579949382e-07 
  28.000000   -4.1193799117e-04    3.6974548791e-03    5.0766903307e-07 
  28.200000   -4.4446087235e-04    3.6745119363e-03    5.3814954212e-07 
  28.400000   -4.8490068051e-04    3.6460194961e-03    3.2770520445e-07 
  28.600000   -5.2784785779e-04    3.6157955704e-03   -1.1221351933e-07 
  28.800000   -5.6747300934e-04    3.5879497472e-03   -7.3061459428e-07 
  29.000000   -5.9834021548e-04    3.5663090469e-03   -1.4449081913e-06 
  29.200000   -6.1617610682e-04    3.5538756779e-03   -2.1540990313e-06 
  29.400000   -6.1847973803e-04    3.5523980341e-03   -2.7550813505e-06 
  29.600000   -6.0488040072e-04    3.5621204714e-03   -3.1593505916e-06 
  29.800000   -5.7718805231e-04    3.5817506106e-03   -3.3073628562e-06 
  30.000000   -5.3912804944e-04    3.6086494675e-03   -3.1781576063e-06 
  30.200000   -4.9580055506e-04    3.6392152214e-03   -2.7926574403e-06 
  30.400000   -4.5294713913e-04    3.6694017428e-03   -2.2101212026e-06 
  30.600000   -4.1613567119e-04    3.6952931015e-03   -1.5183742337e-06 
  30.800000   -3.8998506621e-04    3.7136482986e-03   -8.1946990978e-07 
  31.000000   -3.7754252832e-04    3.7223371875e-03   -2.1317234965e-07 
  31.200000   -3.7989978610e-04    3.7206073299e-03    2.1902009631e-07 
  31.400000   -3.9609639755e-04    3.7091488448e-03    4.2665944995e-07 
  31.600000   -4.2331417555e-04    3.6899547408e-03    3.9810975773e-07 
  31.800000   -4.5732480682e-04    3.6660047531e-03    1.6198517414e-07 
  32.000000   -4.9311760880e-04    3.6408237641e-03   -2.1814952359e-07 
  32.200000   -5.2561278245e-04    3.6179807838e-03   -6.5463181575e-07 
  32.400000   -5.5035815750e-04    3.6006005825e-03   -1.0500680725e-06 
  32.600000   -5.6411433737e-04    3.5909538505e-03   -1.3133471680e-06 
  32.800000   -5.6525269876e-04    3.5901786270e-03   -1.3746280128e-06 
  33.000000   -5.5391885330e-04    3.5981661612e-03   -1.1967181611e-06 
  33.200000   -5.3194791373e-04    3.6136207675e-03   -7.8123333147e-07 
  33.400000   -5.0255143536e-04    3.6342800192e-03   -1.6848708729e-07 
  33.600000   -4.6982568872e-04    3.6572602420e-03    5.6862305924e-07 
  33.800000   -4.3815435436e-04    3.6794766451e-03    1.3360792774e-06 
  34.000000   -4.1159126451e-04    3.6980778443e-03    2.0337071828e-06 
  34.200000   -3.9330991260e-04    3.7108335971e-03    2.5708037872e-06 
  34.400000   -3.8519618616e-04    3.7164216178e-03    2.8804386598e-06 
  34.600000   -3.8763911174e-04    3.7145745842e-03    2.9300282602e-06 
  34.800000   -3.9954506489e-04    3.7060697838e-03    2.7262550560e-06 
  35.000000   -4.1856723259e-04    3.6925667560e-03    2.3137226360e-06 
  35.200000   -4.4150982119e-04    3.6763216895e-03    1.7675281959e-06 
  35.400000   -4.6484033682e-04    3.6598257754e-03    1.1809614611e-06 
  35.600000   -4.8522779075e-04    3.6454256289e-03    6.5033289913e-07 
  35.800000   -5.0002264279e-04    3.6349852463e-03    2.5940756191e-07 
  36.000000   -5.0760622879e-04    3.6296404998e-03    6.6029165779e-08 
  36.200000   -5.0756073803e-04    3.6296801393e-03    9.2865354929e-08 
  36.400000   -5.0064273455e-04    3.6345655929e-03    3.2402146119e-07 
  36.600000   -4.8857584089e-04    3.6430778462e-03    7.0820928042e-07 
  36.800000   -4.7370697697e-04    3.6535599286e-03    1.1673051961e-06 
  37.000000   -4.5859131930e-04    3.6642097866e-03    1.6093418097e-06 
  37.200000   -4.4557770475e-04    3.6733719130e-03    1.9437177135e-06 
  37.400000   -4.3646156238e-04    3.6797814492e-03    2.0957763724e-06 
  37.600000   -4.3225629990e-04    3.6827250732e-03    2.0190066110e-06 
  37.800000   -4.3310988755e-04    3.6820996114e-03    1.7026864027e-06 
  38.000000   -4.3836748432e-04    3.6783683079e-03    1.1735883499e-06 
  38.200000   -4.4675698358e-04    3.6724305650e-03    4.9172861610e-07 
  38.400000   -4.5665653072e-04    3.6654338262e-03   -2.5914957971e-07 
  38.600000   -4.6639367301e-04    3.6585627870e-03   -9.8479402432e-07 
  38.800000   -4.7452539619e-04    3.6528415027e-03   -1.5952301840e-06 
  39.000000   -4.8005586167e-04    3.6489788033e-03   -2.0187570422e-06 
  39.200000   -4.8256208420e-04    3.6472781777e-03   -2.2129384088e-06 
  39.400000   -4.8221439669e-04    3.6476217472e-03   -2.1708773443e-06 
  39.600000   -4.7969565314e-04    3.6495259768e-03   -1.9218139423e-06 
  39.800000   -4.7603835838e-04    3.6522559796e-03   -1.5259970460e-06 
  40.000000   -4.7241046792e-04    3.6549769738e-03   -1.0646778345e-06 
  40.200000   -4.6988724146e-04    3.6569165385e-03   -6.2684471610e-07 
  40.400000   -4.6924761532e-04    3.6575103210e-03   -2.9482080590e-07 
  40.600000   -4.7082900794e-04    3.6565068814e-03   -1.3101855076e-07 
  40.800000   -4.7446482895e-04    3.6540140786e-03   -1.6795204197e-07 
  41.000000   -4.7951540363e-04    3.6504789984e-03   -4.0308442289e-07 
  41.200000   -4.8498738254e-04    3.6466045798e-03   -7.9931527839e-07 
  41.400000   -4.8972133090e-04    3.6432171206e-03   -1.2910141389e-06 
  41.600000   -4.9261467022e-04    3.6411078595e-03   -1.7946232440e-06 
  41.800000   -4.9283986828e-04    3.6408771192e-03   -2.2221296335e-06 
  42.000000   -4.9001741315e-04    3.6428098526e-03   -2.4952465473e-06 
  42.200000   -4.8431018209e-04    3.6468064871e-03   -2.5580434222e-06 
  42.400000   -4.7641940021e-04    3.6523833814e-03   -2.3860080412e-06 
  42.600000   -4.6748019262e-04    3.6587446211e-03   -1.9901028582e-06 
  42.800000   -4.5887345482e-04    3.6649136227e-03   -1.4151796234e-06 
  43.000000   -4.5198675978e-04    3.6699016677e-03   -7.3301216867e-07 
  43.200000   -4.4796706809e-04    3.6728833070e-03   -3.1073593712e-08 
  43.400000   -4.4751004124e-04    3.6733470106e-03    6.0115047680e-07 
  43.600000   -4.5072434303e-04    3.6711938105e-03    1.0861276366e-06 
  43.800000   -4.5709573094e-04    3.6667660845e-03    1.3703061894e-06 
  44.000000   -4.6555771009e-04    3.6608012059e-03    1.4323019052e-06 
  44.200000   -4.7465657972e-04    3.6543180491e-03    1.2859599121e-06 
  44.400000   -4.8278242640e-04    3.6484558392e-03    9.7782601932e-07 
  44.600000   -4.8842695449e-04    3.6442926753e-03    5.7944123579e-07 
  44.800000   -4.9042510835e-04    3.6426730579e-03    1.7566772412e-07 
  45.000000   -4.8814225136e-04    3.6440728377e-03   -1.4888763261e-07 
  45.200000   -4.8157767304e-04    3.6485220661e-03   -3.2347573679e-07 
  45.400000   -4.7136954497e-04    3.6555964810e-03   -3.0283252750e-07 
  45.600000   -4.5870283556e-04    3.6644780429e-03   -7.4474628193e-08 
  45.800000   -4.4513548913e-04    3.6740740369e-03    3.3923183458e-07 
  46.000000   -4.3237029393e-04    3.6831766364e-03    8.8436290811e-07 
  46.200000   -4.2200674104e-04    3.6906386330e-03    1.4837552524e-06 
  46.400000   -4.1530934514e-04    3.6955396433e-03    2.0490073202e-06 
  46.600000   -4.1302589661e-04    3.6973187565e-03    2.4942849330e-06 
  46.800000   -4.1528166858e-04    3.6958545504e-03    2.7497741983e-06 
  47.000000   -4.2156471695e-04    3.6914809306e-03    2.7726823529e-06 
  47.200000   -4.3080443632e-04    3.6849363841e-03    2.5540664668e-06 
  47.400000   -4.4153209864e-04    3.6772538499e-03    2.1204172342e-06 
  47.600000   -4.5209996412e-04    3.6696072001e-03    1.5297376544e-06 
  47.800000   -4.6092649504e-04    3.6631370247e-03    8.6271561682e-07 
  48.000000   -4.6673072199e-04    3.6587818999e-03    2.1035009007e-07 
  48.200000   -4.6871988611e-04    3.6571408859e-03   -3.4004893152e-07 
  48.400000   -4.6670127209e-04    3.6583884750e-03   -7.1831056671e-07 
  48.600000   -4.6110085266e-04    3.6622551489e-03   -8.8220224404e-07 
  48.800000   -4.5288623386e-04    3.6680762881e-03   -8.2388890945e-07 
  49.000000   -4.4340696469e-04    3.6749011434e-03   -5.7103115146e-07 
  49.200000   -4.3417881385e-04    3.6816438198e-03   -1.8233885946e-07 
  49.400000   -4.2664765711e-04    3.6872515114e-03    2.6173692300e-07 
  49.600000   -4.2197146587e-04    3.6908627701e-03    6.7172991384e-07 
  49.800000   -4.2085503344e-04    3.6919308286e-03    9.6331969556e-07 
  50.000000   -4.2346228696e-04    3.6902934587e-03    1.0707189158e-06 
  50.200000   -4.2941722231e-04    3.6861802826e-03    9.5719143321e-07 
  50.400000   -4.3788930114e-04    3.6801590838e-03    6.2106141370e-07 
  50.600000   -4.4774535355e-04    3.6730325453e-03    9.6266920684e-08 
  50.800000   -4.5774003952e-04    3.6657043009e-03   -5.5263266630e-07 
  51.000000   -4.6671224736e-04    3.6590370598e-03   -1.2402228926e-06 
  51.200000   -4.7375585095e-04    3.6537255045e-03   -1.8733739611e-06 
  51.400000   -4.7833966470e-04    3.6502027231e-03   -2.3652413960e-06 
  51.600000   -4.8036084210e-04    3.6485927870e-03   -2.6486229219e-06 
  51.800000   -4.8012780983e-04    3.6487139699e-03   -2.6864102016e-06 
  52.000000   -4.7827987129e-04    3.6501287465e-03   -2.4773230071e-06 
  52.200000   -4.7566013927e-04    3.6522304518e-03   -2.0560763458e-06 
  52.400000   -4.7316435311e-04    3.6543512323e-03   -1.4879477898e-06 
  52.600000   -4.7159008124e-04    3.6558734560e-03   -8.5878930301e-07 
  52.800000   -4.7151007070e-04    3.6563273108e-03   -2.6178275137e-07 
  53.000000   -4.7318846621e-04    3.6554603581e-03    2.1672788632e-07 
  53.200000   -4.7655150805e-04    3.6532688016e-03    5.1049243984e-07 
  53.400000   -4.8121568418e-04    3.6499867328e-03    5.8358646417e-07 
  53.600000   -4.8656731924e-04    3.6460365359e-03    4.3579606404e-07 
  53.800000   -4.9187953349e-04    3.6419489681e-03    1.0251741617e-07 
  54.000000   -4.9644648869e-04    3.6382666406e-03   -3.5086832262e-07 
