&& imag part epsilon2(omega) tensor, xx, yy,zz xy, xz, yz
0.000000    3.790535e-03 3.790535e-03 9.468911e-04   -1.708378e-20 -2.585502e-29 3.217222e-27
0.010000    3.802301e-03 3.802301e-03 9.484250e-04   -1.715238e-20 -2.549820e-29 3.218936e-27
0.020000    3.814128e-03 3.814128e-03 9.499627e-04   -1.722140e-20 -2.513965e-29 3.220653e-27
0.030000    3.826015e-03 3.826015e-03 9.515044e-04   -1.729082e-20 -2.477935e-29 3.222374e-27
0.040000    3.837963e-03 3.837963e-03 9.530500e-04   -1.736067e-20 -2.441727e-29 3.224098e-27
0.050000    3.849972e-03 3.849972e-03 9.545997e-04   -1.743093e-20 -2.405342e-29 3.225827e-27
0.060000    3.862043e-03 3.862043e-03 9.561532e-04   -1.750161e-20 -2.368778e-29 3.227558e-27
0.070000    3.874176e-03 3.874176e-03 9.577108e-04   -1.757272e-20 -2.332032e-29 3.229294e-27
0.080000    3.886372e-03 3.886372e-03 9.592724e-04   -1.764425e-20 -2.295104e-29 3.231033e-27
0.090000    3.898630e-03 3.898630e-03 9.608380e-04   -1.771622e-20 -2.257993e-29 3.232776e-27
0.100000    3.910952e-03 3.910952e-03 9.624077e-04   -1.778863e-20 -2.220697e-29 3.234523e-27
0.110000    3.923339e-03 3.923339e-03 9.639813e-04   -1.786147e-20 -2.183214e-29 3.236273e-27
0.120000    3.935789e-03 3.935789e-03 9.655591e-04   -1.793475e-20 -2.145543e-29 3.238028e-27
0.130000    3.948305e-03 3.948305e-03 9.671409e-04   -1.800849e-20 -2.107683e-29 3.239786e-27
0.140000    3.960885e-03 3.960885e-03 9.687269e-04   -1.808267e-20 -2.069632e-29 3.241548e-27
0.150000    3.973532e-03 3.973532e-03 9.703169e-04   -1.815730e-20 -2.031389e-29 3.243314e-27
0.160000    3.986245e-03 3.986245e-03 9.719111e-04   -1.823239e-20 -1.992951e-29 3.245084e-27
0.170000    3.999025e-03 3.999025e-03 9.735094e-04   -1.830795e-20 -1.954319e-29 3.246858e-27
0.180000    4.011872e-03 4.011872e-03 9.751118e-04   -1.838396e-20 -1.915489e-29 3.248636e-27
0.190000    4.024787e-03 4.024787e-03 9.767185e-04   -1.846045e-20 -1.876460e-29 3.250417e-27
0.200000    4.037770e-03 4.037770e-03 9.783293e-04   -1.853741e-20 -1.837232e-29 3.252203e-27
0.210000    4.050822e-03 4.050822e-03 9.799443e-04   -1.861484e-20 -1.797801e-29 3.253994e-27
0.220000    4.063943e-03 4.063943e-03 9.815635e-04   -1.869276e-20 -1.758167e-29 3.255788e-27
0.230000    4.077134e-03 4.077134e-03 9.831869e-04   -1.877115e-20 -1.718328e-29 3.257586e-27
0.240000    4.090396e-03 4.090396e-03 9.848146e-04   -1.885004e-20 -1.678283e-29 3.259389e-27
0.250000    4.103728e-03 4.103728e-03 9.864466e-04   -1.892942e-20 -1.638029e-29 3.261196e-27
0.260000    4.117132e-03 4.117132e-03 9.880828e-04   -1.900929e-20 -1.597565e-29 3.263007e-27
0.270000    4.130608e-03 4.130608e-03 9.897233e-04   -1.908967e-20 -1.556889e-29 3.264822e-27
0.280000    4.144156e-03 4.144156e-03 9.913681e-04   -1.917055e-20 -1.516000e-29 3.266642e-27
0.290000    4.157777e-03 4.157777e-03 9.930173e-04   -1.925193e-20 -1.474895e-29 3.268466e-27
0.300000    4.171472e-03 4.171472e-03 9.946707e-04   -1.933383e-20 -1.433573e-29 3.270295e-27
0.310000    4.185240e-03 4.185240e-03 9.963285e-04   -1.941625e-20 -1.392033e-29 3.272128e-27
0.320000    4.199084e-03 4.199084e-03 9.979907e-04   -1.949919e-20 -1.350272e-29 3.273965e-27
0.330000    4.213003e-03 4.213003e-03 9.996573e-04   -1.958266e-20 -1.308288e-29 3.275807e-27
0.340000    4.226997e-03 4.226997e-03 1.001328e-03   -1.966665e-20 -1.266080e-29 3.277653e-27
0.350000    4.241068e-03 4.241068e-03 1.003004e-03   -1.975118e-20 -1.223646e-29 3.279505e-27
0.360000    4.255216e-03 4.255216e-03 1.004683e-03   -1.983625e-20 -1.180984e-29 3.281360e-27
0.370000    4.269442e-03 4.269442e-03 1.006368e-03   -1.992187e-20 -1.138092e-29 3.283221e-27
0.380000    4.283746e-03 4.283746e-03 1.008056e-03   -2.000803e-20 -1.094968e-29 3.285086e-27
0.390000    4.298128e-03 4.298128e-03 1.009750e-03   -2.009474e-20 -1.051611e-29 3.286956e-27
0.400000    4.312590e-03 4.312590e-03 1.011447e-03   -2.018202e-20 -1.008017e-29 3.288830e-27
0.410000    4.327132e-03 4.327132e-03 1.013150e-03   -2.026985e-20 -9.641858e-30 3.290710e-27
0.420000    4.341754e-03 4.341754e-03 1.014856e-03   -2.035826e-20 -9.201146e-30 3.292594e-27
0.430000    4.356458e-03 4.356458e-03 1.016568e-03   -2.044723e-20 -8.758015e-30 3.294483e-27
0.440000    4.371243e-03 4.371243e-03 1.018284e-03   -2.053679e-20 -8.312445e-30 3.296377e-27
0.450000    4.386111e-03 4.386111e-03 1.020004e-03   -2.062692e-20 -7.864415e-30 3.298276e-27
0.460000    4.401062e-03 4.401062e-03 1.021729e-03   -2.071765e-20 -7.413904e-30 3.300180e-27
0.470000    4.416097e-03 4.416097e-03 1.023459e-03   -2.080896e-20 -6.960890e-30 3.302090e-27
0.480000    4.431216e-03 4.431216e-03 1.025193e-03   -2.090088e-20 -6.505352e-30 3.304004e-27
0.490000    4.446420e-03 4.446420e-03 1.026932e-03   -2.099340e-20 -6.047268e-30 3.305923e-27
0.500000    4.461710e-03 4.461710e-03 1.028675e-03   -2.108652e-20 -5.586615e-30 3.307848e-27
0.510000    4.477087e-03 4.477087e-03 1.030424e-03   -2.118026e-20 -5.123372e-30 3.309778e-27
0.520000    4.492551e-03 4.492551e-03 1.032177e-03   -2.127462e-20 -4.657516e-30 3.311713e-27
0.530000    4.508102e-03 4.508102e-03 1.033934e-03   -2.136960e-20 -4.189025e-30 3.313654e-27
0.540000    4.523742e-03 4.523742e-03 1.035697e-03   -2.146521e-20 -3.717874e-30 3.315600e-27
0.550000    4.539471e-03 4.539471e-03 1.037464e-03   -2.156146e-20 -3.244041e-30 3.317551e-27
0.560000    4.555291e-03 4.555291e-03 1.039236e-03   -2.165835e-20 -2.767501e-30 3.319508e-27
0.570000    4.571200e-03 4.571200e-03 1.041013e-03   -2.175588e-20 -2.288232e-30 3.321470e-27
0.580000    4.587201e-03 4.587201e-03 1.042794e-03   -2.185407e-20 -1.806209e-30 3.323438e-27
0.590000    4.603295e-03 4.603295e-03 1.044581e-03   -2.195292e-20 -1.321406e-30 3.325412e-27
0.600000    4.619481e-03 4.619481e-03 1.046372e-03   -2.205243e-20 -8.338007e-31 3.327391e-27
0.610000    4.635760e-03 4.635760e-03 1.048168e-03   -2.215261e-20 -3.433666e-31 3.329376e-27
0.620000    4.652134e-03 4.652134e-03 1.049969e-03   -2.225346e-20 1.499214e-31 3.331367e-27
0.630000    4.668603e-03 4.668603e-03 1.051775e-03   -2.235500e-20 6.460890e-31 3.333363e-27
0.640000    4.685168e-03 4.685168e-03 1.053585e-03   -2.245723e-20 1.145162e-30 3.335366e-27
0.650000    4.701830e-03 4.701830e-03 1.055401e-03   -2.256015e-20 1.647167e-30 3.337374e-27
0.660000    4.718589e-03 4.718589e-03 1.057222e-03   -2.266377e-20 2.152130e-30 3.339389e-27
0.670000    4.735446e-03 4.735446e-03 1.059047e-03   -2.276810e-20 2.660079e-30 3.341409e-27
0.680000    4.752403e-03 4.752403e-03 1.060878e-03   -2.287314e-20 3.171040e-30 3.343435e-27
0.690000    4.769459e-03 4.769459e-03 1.062714e-03   -2.297890e-20 3.685041e-30 3.345468e-27
0.700000    4.786616e-03 4.786616e-03 1.064554e-03   -2.308539e-20 4.202109e-30 3.347507e-27
0.710000    4.803874e-03 4.803874e-03 1.066400e-03   -2.319262e-20 4.722274e-30 3.349552e-27
0.720000    4.821235e-03 4.821235e-03 1.068251e-03   -2.330058e-20 5.245564e-30 3.351604e-27
0.730000    4.838699e-03 4.838699e-03 1.070106e-03   -2.340929e-20 5.772007e-30 3.353661e-27
0.740000    4.856267e-03 4.856267e-03 1.071967e-03   -2.351875e-20 6.301633e-30 3.355726e-27
0.750000    4.873940e-03 4.873940e-03 1.073833e-03   -2.362898e-20 6.834472e-30 3.357796e-27
0.760000    4.891718e-03 4.891718e-03 1.075705e-03   -2.373997e-20 7.370552e-30 3.359874e-27
0.770000    4.909604e-03 4.909604e-03 1.077581e-03   -2.385173e-20 7.909906e-30 3.361958e-27
0.780000    4.927597e-03 4.927597e-03 1.079462e-03   -2.396428e-20 8.452562e-30 3.364048e-27
0.790000    4.945698e-03 4.945698e-03 1.081349e-03   -2.407762e-20 8.998554e-30 3.366146e-27
0.800000    4.963909e-03 4.963909e-03 1.083241e-03   -2.419176e-20 9.547911e-30 3.368250e-27
0.810000    4.982230e-03 4.982230e-03 1.085138e-03   -2.430670e-20 1.010067e-29 3.370361e-27
0.820000    5.000662e-03 5.000662e-03 1.087041e-03   -2.442245e-20 1.065685e-29 3.372479e-27
0.830000    5.019207e-03 5.019207e-03 1.088948e-03   -2.453902e-20 1.121650e-29 3.374604e-27
0.840000    5.037864e-03 5.037864e-03 1.090862e-03   -2.465642e-20 1.177964e-29 3.376736e-27
0.850000    5.056636e-03 5.056636e-03 1.092780e-03   -2.477465e-20 1.234631e-29 3.378875e-27
0.860000    5.075523e-03 5.075523e-03 1.094704e-03   -2.489372e-20 1.291655e-29 3.381022e-27
0.870000    5.094526e-03 5.094526e-03 1.096633e-03   -2.501365e-20 1.349038e-29 3.383175e-27
0.880000    5.113646e-03 5.113646e-03 1.098567e-03   -2.513443e-20 1.406784e-29 3.385336e-27
0.890000    5.132884e-03 5.132884e-03 1.100507e-03   -2.525609e-20 1.464897e-29 3.387505e-27
0.900000    5.152241e-03 5.152241e-03 1.102452e-03   -2.537861e-20 1.523381e-29 3.389681e-27
0.910000    5.171718e-03 5.171718e-03 1.104403e-03   -2.550203e-20 1.582238e-29 3.391864e-27
0.920000    5.191316e-03 5.191316e-03 1.106359e-03   -2.562633e-20 1.641473e-29 3.394056e-27
0.930000    5.211037e-03 5.211037e-03 1.108321e-03   -2.575154e-20 1.701089e-29 3.396254e-27
0.940000    5.230881e-03 5.230881e-03 1.110288e-03   -2.587765e-20 1.761090e-29 3.398461e-27
0.950000    5.250849e-03 5.250849e-03 1.112261e-03   -2.600468e-20 1.821479e-29 3.400676e-27
0.960000    5.270943e-03 5.270943e-03 1.114239e-03   -2.613264e-20 1.882262e-29 3.402898e-27
0.970000    5.291163e-03 5.291163e-03 1.116223e-03   -2.626154e-20 1.943441e-29 3.405128e-27
0.980000    5.311511e-03 5.311511e-03 1.118212e-03   -2.639138e-20 2.005020e-29 3.407367e-27
0.990000    5.331987e-03 5.331987e-03 1.120207e-03   -2.652218e-20 2.067003e-29 3.409614e-27
1.000000    5.352594e-03 5.352594e-03 1.122208e-03   -2.665394e-20 2.129395e-29 3.411869e-27
1.010000    5.373331e-03 5.373331e-03 1.124214e-03   -2.678668e-20 2.192200e-29 3.414132e-27
1.020000    5.394201e-03 5.394201e-03 1.126226e-03   -2.692039e-20 2.255421e-29 3.416404e-27
1.030000    5.415204e-03 5.415204e-03 1.128244e-03   -2.705511e-20 2.319063e-29 3.418684e-27
1.040000    5.436342e-03 5.436342e-03 1.130267e-03   -2.719082e-20 2.383131e-29 3.420973e-27
1.050000    5.457615e-03 5.457615e-03 1.132297e-03   -2.732755e-20 2.447627e-29 3.423271e-27
1.060000    5.479026e-03 5.479026e-03 1.134332e-03   -2.746530e-20 2.512558e-29 3.425577e-27
1.070000    5.500575e-03 5.500575e-03 1.136372e-03   -2.760408e-20 2.577927e-29 3.427892e-27
1.080000    5.522263e-03 5.522263e-03 1.138419e-03   -2.774390e-20 2.643738e-29 3.430217e-27
1.090000    5.544092e-03 5.544092e-03 1.140471e-03   -2.788478e-20 2.709997e-29 3.432550e-27
1.100000    5.566063e-03 5.566063e-03 1.142530e-03   -2.802673e-20 2.776708e-29 3.434892e-27
1.110000    5.588177e-03 5.588177e-03 1.144594e-03   -2.816974e-20 2.843875e-29 3.437244e-27
1.120000    5.610437e-03 5.610437e-03 1.146664e-03   -2.831385e-20 2.911503e-29 3.439605e-27
1.130000    5.632841e-03 5.632841e-03 1.148740e-03   -2.845905e-20 2.979598e-29 3.441975e-27
1.140000    5.655394e-03 5.655394e-03 1.150822e-03   -2.860536e-20 3.048163e-29 3.444355e-27
1.150000    5.678095e-03 5.678095e-03 1.152910e-03   -2.875279e-20 3.117204e-29 3.446745e-27
1.160000    5.700946e-03 5.700946e-03 1.155004e-03   -2.890135e-20 3.186726e-29 3.449144e-27
1.170000    5.723948e-03 5.723948e-03 1.157104e-03   -2.905105e-20 3.256734e-29 3.451553e-27
1.180000    5.747103e-03 5.747103e-03 1.159210e-03   -2.920191e-20 3.327233e-29 3.453972e-27
1.190000    5.770412e-03 5.770412e-03 1.161322e-03   -2.935393e-20 3.398228e-29 3.456401e-27
1.200000    5.793877e-03 5.793877e-03 1.163440e-03   -2.950713e-20 3.469724e-29 3.458841e-27
1.210000    5.817499e-03 5.817499e-03 1.165565e-03   -2.966152e-20 3.541728e-29 3.461290e-27
1.220000    5.841280e-03 5.841280e-03 1.167695e-03   -2.981711e-20 3.614243e-29 3.463750e-27
1.230000    5.865220e-03 5.865220e-03 1.169832e-03   -2.997392e-20 3.687276e-29 3.466220e-27
1.240000    5.889322e-03 5.889322e-03 1.171975e-03   -3.013195e-20 3.760832e-29 3.468701e-27
1.250000    5.913588e-03 5.913588e-03 1.174124e-03   -3.029123e-20 3.834917e-29 3.471193e-27
1.260000    5.938018e-03 5.938018e-03 1.176279e-03   -3.045175e-20 3.909537e-29 3.473695e-27
1.270000    5.962614e-03 5.962614e-03 1.178441e-03   -3.061355e-20 3.984697e-29 3.476209e-27
1.280000    5.987377e-03 5.987377e-03 1.180609e-03   -3.077662e-20 4.060403e-29 3.478733e-27
1.290000    6.012311e-03 6.012311e-03 1.182783e-03   -3.094099e-20 4.136661e-29 3.481269e-27
1.300000    6.037415e-03 6.037415e-03 1.184964e-03   -3.110667e-20 4.213477e-29 3.483816e-27
1.310000    6.062691e-03 6.062691e-03 1.187150e-03   -3.127366e-20 4.290858e-29 3.486374e-27
1.320000    6.088142e-03 6.088142e-03 1.189344e-03   -3.144199e-20 4.368809e-29 3.488944e-27
1.330000    6.113769e-03 6.113769e-03 1.191544e-03   -3.161167e-20 4.447337e-29 3.491526e-27
1.340000    6.139574e-03 6.139574e-03 1.193750e-03   -3.178272e-20 4.526448e-29 3.494119e-27
1.350000    6.165558e-03 6.165558e-03 1.195963e-03   -3.195514e-20 4.606149e-29 3.496724e-27
1.360000    6.191723e-03 6.191723e-03 1.198182e-03   -3.212895e-20 4.686446e-29 3.499342e-27
1.370000    6.218070e-03 6.218070e-03 1.200408e-03   -3.230417e-20 4.767346e-29 3.501971e-27
1.380000    6.244603e-03 6.244603e-03 1.202640e-03   -3.248082e-20 4.848856e-29 3.504613e-27
1.390000    6.271322e-03 6.271322e-03 1.204879e-03   -3.265890e-20 4.930982e-29 3.507268e-27
1.400000    6.298229e-03 6.298229e-03 1.207124e-03   -3.283844e-20 5.013732e-29 3.509935e-27
1.410000    6.325327e-03 6.325327e-03 1.209377e-03   -3.301945e-20 5.097112e-29 3.512615e-27
1.420000    6.352616e-03 6.352616e-03 1.211635e-03   -3.320195e-20 5.181129e-29 3.515308e-27
1.430000    6.380099e-03 6.380099e-03 1.213901e-03   -3.338594e-20 5.265792e-29 3.518013e-27
1.440000    6.407778e-03 6.407778e-03 1.216173e-03   -3.357146e-20 5.351107e-29 3.520733e-27
1.450000    6.435655e-03 6.435655e-03 1.218452e-03   -3.375851e-20 5.437081e-29 3.523465e-27
1.460000    6.463732e-03 6.463732e-03 1.220738e-03   -3.394712e-20 5.523723e-29 3.526211e-27
1.470000    6.492011e-03 6.492011e-03 1.223030e-03   -3.413729e-20 5.611040e-29 3.528971e-27
1.480000    6.520493e-03 6.520493e-03 1.225330e-03   -3.432905e-20 5.699039e-29 3.531744e-27
1.490000    6.549181e-03 6.549181e-03 1.227636e-03   -3.452242e-20 5.787730e-29 3.534531e-27
1.500000    6.578077e-03 6.578077e-03 1.229949e-03   -3.471741e-20 5.877119e-29 3.537333e-27
1.510000    6.607183e-03 6.607183e-03 1.232269e-03   -3.491404e-20 5.967215e-29 3.540149e-27
1.520000    6.636501e-03 6.636501e-03 1.234596e-03   -3.511233e-20 6.058026e-29 3.542979e-27
1.530000    6.666034e-03 6.666034e-03 1.236930e-03   -3.531230e-20 6.149561e-29 3.545824e-27
1.540000    6.695783e-03 6.695783e-03 1.239271e-03   -3.551397e-20 6.241828e-29 3.548684e-27
1.550000    6.725750e-03 6.725750e-03 1.241619e-03   -3.571735e-20 6.334836e-29 3.551559e-27
1.560000    6.755939e-03 6.755939e-03 1.243974e-03   -3.592247e-20 6.428593e-29 3.554449e-27
1.570000    6.786351e-03 6.786351e-03 1.246336e-03   -3.612934e-20 6.523109e-29 3.557355e-27
1.580000    6.816989e-03 6.816989e-03 1.248706e-03   -3.633799e-20 6.618392e-29 3.560276e-27
1.590000    6.847854e-03 6.847854e-03 1.251082e-03   -3.654844e-20 6.714452e-29 3.563213e-27
1.600000    6.878950e-03 6.878950e-03 1.253466e-03   -3.676070e-20 6.811298e-29 3.566166e-27
1.610000    6.910278e-03 6.910278e-03 1.255857e-03   -3.697480e-20 6.908940e-29 3.569134e-27
1.620000    6.941841e-03 6.941841e-03 1.258255e-03   -3.719076e-20 7.007387e-29 3.572120e-27
1.630000    6.973642e-03 6.973642e-03 1.260660e-03   -3.740860e-20 7.106649e-29 3.575121e-27
1.640000    7.005683e-03 7.005683e-03 1.263073e-03   -3.762834e-20 7.206735e-29 3.578140e-27
1.650000    7.037967e-03 7.037967e-03 1.265493e-03   -3.785001e-20 7.307657e-29 3.581175e-27
1.660000    7.070495e-03 7.070495e-03 1.267920e-03   -3.807362e-20 7.409424e-29 3.584228e-27
1.670000    7.103272e-03 7.103272e-03 1.270355e-03   -3.829920e-20 7.512046e-29 3.587297e-27
1.680000    7.136299e-03 7.136299e-03 1.272797e-03   -3.852678e-20 7.615535e-29 3.590385e-27
1.690000    7.169579e-03 7.169579e-03 1.275246e-03   -3.875637e-20 7.719900e-29 3.593490e-27
1.700000    7.203114e-03 7.203114e-03 1.277703e-03   -3.898801e-20 7.825153e-29 3.596613e-27
1.710000    7.236908e-03 7.236908e-03 1.280168e-03   -3.922170e-20 7.931305e-29 3.599754e-27
1.720000    7.270964e-03 7.270964e-03 1.282640e-03   -3.945749e-20 8.038367e-29 3.602914e-27
1.730000    7.305283e-03 7.305283e-03 1.285120e-03   -3.969539e-20 8.146351e-29 3.606093e-27
1.740000    7.339870e-03 7.339870e-03 1.287607e-03   -3.993543e-20 8.255267e-29 3.609290e-27
1.750000    7.374727e-03 7.374727e-03 1.290102e-03   -4.017764e-20 8.365129e-29 3.612507e-27
1.760000    7.409856e-03 7.409856e-03 1.292605e-03   -4.042203e-20 8.475947e-29 3.615743e-27
1.770000    7.445261e-03 7.445261e-03 1.295115e-03   -4.066865e-20 8.587734e-29 3.618999e-27
1.780000    7.480945e-03 7.480945e-03 1.297633e-03   -4.091751e-20 8.700503e-29 3.622274e-27
1.790000    7.516911e-03 7.516911e-03 1.300159e-03   -4.116864e-20 8.814266e-29 3.625570e-27
1.800000    7.553162e-03 7.553162e-03 1.302693e-03   -4.142207e-20 8.929035e-29 3.628886e-27
1.810000    7.589701e-03 7.589701e-03 1.305235e-03   -4.167783e-20 9.044824e-29 3.632223e-27
1.820000    7.626531e-03 7.626531e-03 1.307784e-03   -4.193594e-20 9.161646e-29 3.635581e-27
1.830000    7.663657e-03 7.663657e-03 1.310341e-03   -4.219644e-20 9.279515e-29 3.638960e-27
1.840000    7.701080e-03 7.701080e-03 1.312907e-03   -4.245935e-20 9.398443e-29 3.642360e-27
1.850000    7.738804e-03 7.738804e-03 1.315480e-03   -4.272471e-20 9.518445e-29 3.645782e-27
1.860000    7.776833e-03 7.776833e-03 1.318061e-03   -4.299255e-20 9.639535e-29 3.649227e-27
1.870000    7.815170e-03 7.815170e-03 1.320651e-03   -4.326289e-20 9.761727e-29 3.652693e-27
1.880000    7.853819e-03 7.853819e-03 1.323248e-03   -4.353576e-20 9.885036e-29 3.656182e-27
1.890000    7.892783e-03 7.892783e-03 1.325854e-03   -4.381121e-20 1.000948e-28 3.659695e-27
1.900000    7.932065e-03 7.932065e-03 1.328467e-03   -4.408925e-20 1.013506e-28 3.663230e-27
1.910000    7.971670e-03 7.971670e-03 1.331089e-03   -4.436993e-20 1.026181e-28 3.666789e-27
1.920000    8.011601e-03 8.011601e-03 1.333719e-03   -4.465328e-20 1.038974e-28 3.670372e-27
1.930000    8.051862e-03 8.051862e-03 1.336358e-03   -4.493933e-20 1.051886e-28 3.673979e-27
1.940000    8.092456e-03 8.092456e-03 1.339004e-03   -4.522811e-20 1.064919e-28 3.677611e-27
1.950000    8.133388e-03 8.133388e-03 1.341659e-03   -4.551967e-20 1.078075e-28 3.681268e-27
1.960000    8.174662e-03 8.174662e-03 1.344323e-03   -4.581403e-20 1.091354e-28 3.684949e-27
1.970000    8.216280e-03 8.216280e-03 1.346994e-03   -4.611123e-20 1.104760e-28 3.688657e-27
1.980000    8.258249e-03 8.258249e-03 1.349675e-03   -4.641131e-20 1.118294e-28 3.692390e-27
1.990000    8.300571e-03 8.300571e-03 1.352363e-03   -4.671431e-20 1.131957e-28 3.696149e-27
2.000000    8.343250e-03 8.343250e-03 1.355061e-03   -4.702026e-20 1.145751e-28 3.699935e-27
2.010000    8.386292e-03 8.386292e-03 1.357766e-03   -4.732921e-20 1.159678e-28 3.703748e-27
2.020000    8.429699e-03 8.429699e-03 1.360481e-03   -4.764118e-20 1.173740e-28 3.707589e-27
2.030000    8.473478e-03 8.473478e-03 1.363204e-03   -4.795623e-20 1.187939e-28 3.711457e-27
2.040000    8.517631e-03 8.517631e-03 1.365935e-03   -4.827439e-20 1.202276e-28 3.715353e-27
2.050000    8.562164e-03 8.562164e-03 1.368676e-03   -4.859570e-20 1.216754e-28 3.719278e-27
2.060000    8.607081e-03 8.607081e-03 1.371425e-03   -4.892020e-20 1.231375e-28 3.723231e-27
2.070000    8.652387e-03 8.652387e-03 1.374183e-03   -4.924795e-20 1.246140e-28 3.727214e-27
2.080000    8.698086e-03 8.698086e-03 1.376949e-03   -4.957897e-20 1.261052e-28 3.731227e-27
2.090000    8.744183e-03 8.744183e-03 1.379725e-03   -4.991332e-20 1.276113e-28 3.735270e-27
2.100000    8.790684e-03 8.790684e-03 1.382509e-03   -5.025103e-20 1.291324e-28 3.739343e-27
2.110000    8.837592e-03 8.837592e-03 1.385303e-03   -5.059216e-20 1.306689e-28 3.743448e-27
2.120000    8.884914e-03 8.884914e-03 1.388105e-03   -5.093675e-20 1.322209e-28 3.747584e-27
