#          \hbar \omega(eV)    Oscillator strength
       0.000000000000000E+00  -.000000000000000E+00
       0.100000000000000E-01  0.108940104355794E-06
       0.200000000000000E-01  0.435764679231439E-06
       0.300000000000000E-01  0.980486510434137E-06
       0.400000000000000E-01  0.174312690891734E-05
       0.500000000000000E-01  0.272371571269314E-05
       0.600000000000000E-01  0.392229128951001E-05
       0.700000000000000E-01  0.533890054029639E-05
       0.800000000000000E-01  0.697359890337064E-05
       0.900000000000000E-01  0.882645035941800E-05
       0.100000000000000E+00  0.108975274372354E-04
       0.110000000000000E+00  0.131869112202449E-04
       0.120000000000000E+00  0.156946913537772E-04
       0.130000000000000E+00  0.184209660531260E-04
       0.140000000000000E+00  0.213658421123744E-04
       0.150000000000000E+00  0.245294349139951E-04
       0.160000000000000E+00  0.279118684392259E-04
       0.170000000000000E+00  0.315132752792224E-04
       0.180000000000000E+00  0.353337966469883E-04
       0.190000000000000E+00  0.393735823900872E-04
       0.200000000000000E+00  0.436327910041372E-04
       0.210000000000000E+00  0.481115896470893E-04
       0.220000000000000E+00  0.528101541542936E-04
       0.230000000000000E+00  0.577286690543554E-04
       0.240000000000000E+00  0.628673275857818E-04
       0.250000000000000E+00  0.682263317144250E-04
       0.260000000000000E+00  0.738058921517218E-04
       0.270000000000000E+00  0.796062283737338E-04
       0.280000000000000E+00  0.856275686409926E-04
       0.290000000000000E+00  0.918701500191489E-04
       0.300000000000000E+00  0.983342184004343E-04
       0.310000000000000E+00  0.105020028525936E-03
       0.320000000000000E+00  0.111927844008688E-03
       0.330000000000000E+00  0.119057937357584E-03
       0.340000000000000E+00  0.126410590002115E-03
       0.350000000000000E+00  0.133986092317935E-03
       0.360000000000000E+00  0.141784743653261E-03
       0.370000000000000E+00  0.149806852356109E-03
       0.380000000000000E+00  0.158052735802373E-03
       0.390000000000000E+00  0.166522720424749E-03
       0.400000000000000E+00  0.175217141742511E-03
       0.410000000000000E+00  0.184136344392142E-03
       0.420000000000000E+00  0.193280682158826E-03
       0.430000000000000E+00  0.202650518008808E-03
       0.440000000000000E+00  0.212246224122624E-03
       0.450000000000000E+00  0.222068181929204E-03
       0.460000000000000E+00  0.232116782140866E-03
       0.470000000000000E+00  0.242392424789189E-03
       0.480000000000000E+00  0.252895519261788E-03
       0.490000000000000E+00  0.263626484339981E-03
       0.500000000000000E+00  0.274585748237372E-03
       0.510000000000000E+00  0.285773748639335E-03
       0.520000000000000E+00  0.297190932743432E-03
       0.530000000000000E+00  0.308837757300742E-03
       0.540000000000000E+00  0.320714688658131E-03
       0.550000000000000E+00  0.332822202801465E-03
       0.560000000000000E+00  0.345160785399759E-03
       0.570000000000000E+00  0.357730931850291E-03
       0.580000000000000E+00  0.370533147324675E-03
       0.590000000000000E+00  0.383567946815899E-03
       0.600000000000000E+00  0.396835855186346E-03
       0.610000000000000E+00  0.410337407216804E-03
       0.620000000000000E+00  0.424073147656455E-03
       0.630000000000000E+00  0.438043631273884E-03
       0.640000000000000E+00  0.452249422909088E-03
       0.650000000000000E+00  0.466691097526509E-03
       0.660000000000000E+00  0.481369240269095E-03
       0.670000000000000E+00  0.496284446513394E-03
       0.680000000000000E+00  0.511437321925707E-03
       0.690000000000000E+00  0.526828482519282E-03
       0.700000000000000E+00  0.542458554712593E-03
       0.710000000000000E+00  0.558328175388673E-03
       0.720000000000000E+00  0.574437991955559E-03
       0.730000000000000E+00  0.590788662407812E-03
       0.740000000000000E+00  0.607380855389155E-03
       0.750000000000000E+00  0.624215250256233E-03
       0.760000000000000E+00  0.641292537143494E-03
       0.770000000000000E+00  0.658613417029212E-03
       0.780000000000000E+00  0.676178601802672E-03
       0.790000000000000E+00  0.693988814332499E-03
       0.800000000000000E+00  0.712044788536187E-03
       0.810000000000000E+00  0.730347269450796E-03
       0.820000000000001E+00  0.748897013304853E-03
       0.830000000000001E+00  0.767694787591485E-03
       0.840000000000001E+00  0.786741371142743E-03
       0.850000000000001E+00  0.806037554205192E-03
       0.860000000000001E+00  0.825584138516745E-03
       0.870000000000001E+00  0.845381937384761E-03
       0.880000000000001E+00  0.865431775765422E-03
       0.890000000000001E+00  0.885734490344405E-03
       0.900000000000001E+00  0.906290929618859E-03
       0.910000000000001E+00  0.927101953980714E-03
       0.920000000000001E+00  0.948168435801310E-03
       0.930000000000001E+00  0.969491259517399E-03
       0.940000000000001E+00  0.991071321718492E-03
       0.950000000000001E+00  0.101290953123562E-02
       0.960000000000001E+00  0.103500680923146E-02
       0.970000000000001E+00  0.105736408929190E-02
       0.980000000000001E+00  0.107998231751904E-02
       0.990000000000001E+00  0.110286245262562E-02
       0.100000000000000E+01  0.112600546603093E-02
       0.101000000000000E+01  0.114941234195821E-02
       0.102000000000000E+01  0.117308407753353E-02
       0.103000000000000E+01  0.119702168288623E-02
       0.104000000000000E+01  0.122122618125086E-02
       0.105000000000000E+01  0.124569860907067E-02
       0.106000000000000E+01  0.127044001610273E-02
       0.107000000000000E+01  0.129545146552462E-02
       0.108000000000000E+01  0.132073403404269E-02
       0.109000000000000E+01  0.134628881200205E-02
       0.110000000000000E+01  0.137211690349811E-02
       0.111000000000000E+01  0.139821942648991E-02
       0.112000000000000E+01  0.142459751291504E-02
       0.113000000000000E+01  0.145125230880639E-02
       0.114000000000000E+01  0.147818497441052E-02
       0.115000000000000E+01  0.150539668430794E-02
       0.116000000000000E+01  0.153288862753502E-02
       0.117000000000000E+01  0.156066200770787E-02
       0.118000000000000E+01  0.158871804314793E-02
       0.119000000000000E+01  0.161705796700949E-02
       0.120000000000000E+01  0.164568302740909E-02
       0.121000000000000E+01  0.167459448755675E-02
       0.122000000000000E+01  0.170379362588930E-02
       0.123000000000000E+01  0.173328173620548E-02
       0.124000000000000E+01  0.176306012780317E-02
       0.125000000000000E+01  0.179313012561855E-02
       0.126000000000000E+01  0.182349307036737E-02
       0.127000000000000E+01  0.185415031868823E-02
       0.128000000000000E+01  0.188510324328799E-02
       0.129000000000000E+01  0.191635323308928E-02
       0.130000000000000E+01  0.194790169338021E-02
       0.131000000000000E+01  0.197975004596621E-02
       0.132000000000000E+01  0.201189972932418E-02
       0.133000000000000E+01  0.204435219875873E-02
       0.134000000000000E+01  0.207710892656088E-02
       0.135000000000000E+01  0.211017140216891E-02
       0.136000000000000E+01  0.214354113233170E-02
       0.137000000000000E+01  0.217721964127433E-02
       0.138000000000000E+01  0.221120847086612E-02
       0.139000000000000E+01  0.224550918079116E-02
       0.140000000000000E+01  0.228012334872131E-02
       0.141000000000000E+01  0.231505257049163E-02
       0.142000000000000E+01  0.235029846027849E-02
       0.143000000000000E+01  0.238586265078017E-02
       0.144000000000000E+01  0.242174679340016E-02
       0.145000000000000E+01  0.245795255843302E-02
       0.146000000000000E+01  0.249448163525311E-02
       0.147000000000000E+01  0.253133573250588E-02
       0.148000000000000E+01  0.256851657830209E-02
       0.149000000000000E+01  0.260602592041475E-02
       0.150000000000000E+01  0.264386552647902E-02
       0.151000000000000E+01  0.268203718419495E-02
       0.152000000000000E+01  0.272054270153319E-02
       0.153000000000000E+01  0.275938390694372E-02
       0.154000000000000E+01  0.279856264956761E-02
       0.155000000000000E+01  0.283808079945187E-02
       0.156000000000000E+01  0.287794024776741E-02
       0.157000000000000E+01  0.291814290703024E-02
       0.158000000000000E+01  0.295869071132585E-02
       0.159000000000000E+01  0.299958561653687E-02
       0.160000000000000E+01  0.304082960057414E-02
       0.161000000000000E+01  0.308242466361101E-02
       0.162000000000000E+01  0.312437282832128E-02
       0.163000000000000E+01  0.316667614012043E-02
       0.164000000000000E+01  0.320933666741049E-02
       0.165000000000000E+01  0.325235650182853E-02
       0.166000000000000E+01  0.329573775849874E-02
       0.167000000000000E+01  0.333948257628822E-02
       0.168000000000000E+01  0.338359311806665E-02
       0.169000000000000E+01  0.342807157096960E-02
       0.170000000000000E+01  0.347292014666590E-02
       0.171000000000000E+01  0.351814108162885E-02
       0.172000000000000E+01  0.356373663741153E-02
       0.173000000000000E+01  0.360970910092607E-02
       0.174000000000000E+01  0.365606078472718E-02
       0.175000000000000E+01  0.370279402729983E-02
       0.176000000000000E+01  0.374991119335120E-02
       0.177000000000000E+01  0.379741467410698E-02
       0.178000000000000E+01  0.384530688761210E-02
       0.179000000000000E+01  0.389359027903592E-02
       0.180000000000000E+01  0.394226732098202E-02
       0.181000000000000E+01  0.399134051380257E-02
       0.182000000000000E+01  0.404081238591743E-02
       0.183000000000000E+01  0.409068549413804E-02
       0.184000000000000E+01  0.414096242399619E-02
       0.185000000000000E+01  0.419164579007770E-02
       0.186000000000000E+01  0.424273823636109E-02
       0.187000000000000E+01  0.429424243656154E-02
       0.188000000000000E+01  0.434616109447973E-02
       0.189000000000000E+01  0.439849694435632E-02
       0.190000000000000E+01  0.445125275123143E-02
       0.191000000000000E+01  0.450443131130996E-02
       0.192000000000000E+01  0.455803545233212E-02
       0.193000000000000E+01  0.461206803394977E-02
       0.194000000000000E+01  0.466653194810851E-02
       0.195000000000000E+01  0.472143011943555E-02
       0.196000000000000E+01  0.477676550563354E-02
       0.197000000000000E+01  0.483254109788035E-02
       0.198000000000000E+01  0.488875992123517E-02
       0.199000000000000E+01  0.494542503505066E-02
       0.200000000000000E+01  0.500253953339154E-02
       0.201000000000000E+01  0.506010654545969E-02
       0.202000000000000E+01  0.511812923602563E-02
       0.203000000000000E+01  0.517661080586695E-02
       0.204000000000000E+01  0.523555449221327E-02
       0.205000000000000E+01  0.529496356919833E-02
       0.206000000000000E+01  0.535484134831898E-02
       0.207000000000000E+01  0.541519117890140E-02
       0.208000000000000E+01  0.547601644857456E-02
       0.209000000000000E+01  0.553732058375108E-02
       0.210000000000000E+01  0.559910705011577E-02
       0.211000000000000E+01  0.566137935312162E-02
       0.212000000000000E+01  0.572414103849381E-02
       0.213000000000000E+01  0.578739569274149E-02
       0.214000000000000E+01  0.585114694367785E-02
       0.215000000000000E+01  0.591539846094821E-02
       0.216000000000000E+01  0.598015395656670E-02
       0.217000000000000E+01  0.604541718546124E-02
       0.218000000000000E+01  0.611119194602748E-02
       0.219000000000000E+01  0.617748208069136E-02
       0.220000000000000E+01  0.624429147648072E-02
       0.221000000000000E+01  0.631162406560618E-02
       0.222000000000000E+01  0.637948382605121E-02
       0.223000000000000E+01  0.644787478217184E-02
       0.224000000000000E+01  0.651680100530588E-02
       0.225000000000000E+01  0.658626661439214E-02
       0.226000000000000E+01  0.665627577659965E-02
       0.227000000000000E+01  0.672683270796696E-02
       0.228000000000000E+01  0.679794167405209E-02
       0.229000000000000E+01  0.686960699059286E-02
       0.229999999999999E+01  0.694183302417805E-02
       0.230999999999999E+01  0.701462419292978E-02
       0.231999999999999E+01  0.708798496719671E-02
       0.232999999999999E+01  0.716191987025900E-02
       0.233999999999999E+01  0.723643347904459E-02
       0.234999999999999E+01  0.731153042485764E-02
       0.235999999999999E+01  0.738721539411875E-02
       0.236999999999999E+01  0.746349312911757E-02
       0.237999999999999E+01  0.754036842877809E-02
       0.238999999999999E+01  0.761784614943646E-02
       0.239999999999999E+01  0.769593120563184E-02
       0.240999999999999E+01  0.777462857091070E-02
       0.241999999999999E+01  0.785394327864446E-02
       0.242999999999999E+01  0.793388042286095E-02
       0.243999999999999E+01  0.801444515908979E-02
       0.244999999999999E+01  0.809564270522235E-02
       0.245999999999999E+01  0.817747834238598E-02
       0.246999999999999E+01  0.825995741583324E-02
       0.247999999999999E+01  0.834308533584633E-02
       0.248999999999999E+01  0.842686757865689E-02
       0.249999999999999E+01  0.851130968738158E-02
       0.250999999999999E+01  0.859641727297366E-02
       0.251999999999999E+01  0.868219601519109E-02
       0.252999999999999E+01  0.876865166358114E-02
       0.253999999999999E+01  0.885579003848218E-02
       0.254999999999999E+01  0.894361703204273E-02
       0.255999999999999E+01  0.903213860925836E-02
       0.256999999999999E+01  0.912136080902639E-02
       0.257999999999999E+01  0.921128974521935E-02
       0.258999999999999E+01  0.930193160777698E-02
       0.259999999999999E+01  0.939329266381756E-02
       0.260999999999999E+01  0.948537925876862E-02
       0.261999999999999E+01  0.957819781751786E-02
       0.262999999999999E+01  0.967175484558422E-02
       0.263999999999999E+01  0.976605693030975E-02
       0.264999999999999E+01  0.986111074207279E-02
       0.265999999999999E+01  0.995692303552271E-02
       0.266999999999999E+01  0.100535006508367E-01
       0.267999999999999E+01  0.101508505149990E-01
       0.268999999999999E+01  0.102489796431037E-01
       0.269999999999999E+01  0.103478951396798E-01
       0.270999999999999E+01  0.104476042000418E-01
       0.271999999999999E+01  0.105481141116633E-01
       0.272999999999999E+01  0.106494322555764E-01
       0.273999999999999E+01  0.107515661077966E-01
       0.274999999999999E+01  0.108545232407732E-01
       0.275999999999999E+01  0.109583113248668E-01
       0.276999999999998E+01  0.110629381298535E-01
       0.277999999999998E+01  0.111684115264572E-01
       0.278999999999998E+01  0.112747394879099E-01
       0.279999999999998E+01  0.113819300915412E-01
       0.280999999999998E+01  0.114899915203971E-01
       0.281999999999998E+01  0.115989320648886E-01
       0.282999999999998E+01  0.117087601244720E-01
       0.283999999999998E+01  0.118194842093600E-01
       0.284999999999998E+01  0.119311129422648E-01
       0.285999999999998E+01  0.120436550601748E-01
       0.286999999999998E+01  0.121571194161641E-01
       0.287999999999998E+01  0.122715149812364E-01
       0.288999999999998E+01  0.123868508462047E-01
       0.289999999999998E+01  0.125031362236054E-01
       0.290999999999998E+01  0.126203804496506E-01
       0.291999999999998E+01  0.127385929862164E-01
       0.292999999999998E+01  0.128577834228705E-01
       0.293999999999998E+01  0.129779614789382E-01
       0.294999999999998E+01  0.130991370056083E-01
       0.295999999999998E+01  0.132213199880809E-01
       0.296999999999998E+01  0.133445205477552E-01
       0.297999999999998E+01  0.134687489444618E-01
       0.298999999999998E+01  0.135940155787376E-01
       0.299999999999998E+01  0.137203309941454E-01
       0.300999999999998E+01  0.138477058796395E-01
       0.301999999999998E+01  0.139761510719781E-01
       0.302999999999998E+01  0.141056775581830E-01
       0.303999999999998E+01  0.142362964780487E-01
       0.304999999999998E+01  0.143680191267008E-01
       0.305999999999998E+01  0.145008569572068E-01
       0.306999999999998E+01  0.146348215832374E-01
       0.307999999999998E+01  0.147699247817833E-01
       0.308999999999998E+01  0.149061784959255E-01
       0.309999999999998E+01  0.150435948376623E-01
       0.310999999999998E+01  0.151821860907929E-01
       0.311999999999998E+01  0.153219647138612E-01
       0.312999999999998E+01  0.154629433431582E-01
       0.313999999999998E+01  0.156051347957872E-01
       0.314999999999998E+01  0.157485520727910E-01
       0.315999999999998E+01  0.158932083623443E-01
       0.316999999999998E+01  0.160391170430123E-01
       0.317999999999998E+01  0.161862916870761E-01
       0.318999999999998E+01  0.163347460639285E-01
       0.319999999999998E+01  0.164844941435398E-01
       0.320999999999998E+01  0.166355500999972E-01
       0.321999999999998E+01  0.167879283151178E-01
       0.322999999999998E+01  0.169416433821385E-01
       0.323999999999997E+01  0.170967101094838E-01
       0.324999999999997E+01  0.172531435246138E-01
       0.325999999999997E+01  0.174109588779540E-01
       0.326999999999997E+01  0.175701716469100E-01
       0.327999999999997E+01  0.177307975399666E-01
       0.328999999999997E+01  0.178928525008776E-01
       0.329999999999997E+01  0.180563527129445E-01
       0.330999999999997E+01  0.182213146033882E-01
       0.331999999999997E+01  0.183877548478165E-01
       0.332999999999997E+01  0.185556903747886E-01
       0.333999999999997E+01  0.187251383704803E-01
       0.334999999999997E+01  0.188961162834508E-01
       0.335999999999997E+01  0.190686418295155E-01
       0.336999999999997E+01  0.192427329967266E-01
       0.337999999999997E+01  0.194184080504647E-01
       0.338999999999997E+01  0.195956855386429E-01
       0.339999999999997E+01  0.197745842970288E-01
       0.340999999999997E+01  0.199551234546850E-01
       0.341999999999997E+01  0.201373224395331E-01
       0.342999999999997E+01  0.203212009840432E-01
       0.343999999999997E+01  0.205067791310523E-01
       0.344999999999997E+01  0.206940772397168E-01
       0.345999999999997E+01  0.208831159915986E-01
       0.346999999999997E+01  0.210739163968941E-01
       0.347999999999997E+01  0.212664998008044E-01
       0.348999999999997E+01  0.214608878900542E-01
       0.349999999999997E+01  0.216571026995615E-01
       0.350999999999997E+01  0.218551666192630E-01
       0.351999999999997E+01  0.220551024010992E-01
       0.352999999999997E+01  0.222569331661641E-01
       0.353999999999997E+01  0.224606824120224E-01
       0.354999999999997E+01  0.226663740202012E-01
       0.355999999999997E+01  0.228740322638588E-01
       0.356999999999997E+01  0.230836818156368E-01
       0.357999999999997E+01  0.232953477557005E-01
       0.358999999999997E+01  0.235090555799722E-01
       0.359999999999997E+01  0.237248312085636E-01
       0.360999999999997E+01  0.239427009944127E-01
       0.361999999999997E+01  0.241626917321301E-01
       0.362999999999997E+01  0.243848306670624E-01
       0.363999999999997E+01  0.246091455045775E-01
       0.364999999999997E+01  0.248356644195784E-01
       0.365999999999997E+01  0.250644160662525E-01
       0.366999999999997E+01  0.252954295880635E-01
       0.367999999999997E+01  0.255287346279909E-01
       0.368999999999997E+01  0.257643613390282E-01
       0.369999999999997E+01  0.260023403949427E-01
       0.370999999999996E+01  0.262427030013086E-01
       0.371999999999996E+01  0.264854809068192E-01
       0.372999999999996E+01  0.267307064148874E-01
       0.373999999999996E+01  0.269784123955422E-01
       0.374999999999996E+01  0.272286322976314E-01
       0.375999999999996E+01  0.274814001613391E-01
       0.376999999999996E+01  0.277367506310269E-01
       0.377999999999996E+01  0.279947189684093E-01
       0.378999999999996E+01  0.282553410660741E-01
       0.379999999999996E+01  0.285186534613563E-01
       0.380999999999996E+01  0.287846933505794E-01
       0.381999999999996E+01  0.290534986036724E-01
