#          \hbar \omega(eV)    Oscillator strength
       0.000000000000000E+00  -.000000000000000E+00
       0.100000000000000E-01  0.108141562257065E-06
       0.200000000000000E-01  0.432570550190764E-06
       0.300000000000000E-01  0.973299867678508E-06
       0.400000000000000E-01  0.173035102248239E-05
       0.500000000000000E-01  0.270375412819906E-05
       0.600000000000000E-01  0.389354790698987E-05
       0.700000000000000E-01  0.529977969309193E-05
       0.800000000000000E-01  0.692250543711060E-05
       0.900000000000000E-01  0.876178971109372E-05
       0.100000000000000E+00  0.108177057143893E-04
       0.110000000000000E+00  0.130903352802862E-04
       0.120000000000000E+00  0.155797688834405E-04
       0.130000000000000E+00  0.182861056480878E-04
       0.140000000000000E+00  0.212094533570422E-04
       0.150000000000000E+00  0.243499284614850E-04
       0.160000000000000E+00  0.277076560915431E-04
       0.170000000000000E+00  0.312827700676605E-04
       0.180000000000000E+00  0.350754129127625E-04
       0.190000000000000E+00  0.390857358652164E-04
       0.200000000000000E+00  0.433138988925908E-04
       0.210000000000000E+00  0.477600707062136E-04
       0.220000000000000E+00  0.524244287765340E-04
       0.230000000000000E+00  0.573071593492890E-04
       0.240000000000000E+00  0.624084574624774E-04
       0.250000000000000E+00  0.677285269641426E-04
       0.260000000000000E+00  0.732675805309741E-04
       0.270000000000000E+00  0.790258396877167E-04
       0.280000000000000E+00  0.850035348274080E-04
       0.290000000000000E+00  0.912009052324304E-04
       0.300000000000000E+00  0.976181990963977E-04
       0.310000000000000E+00  0.104255673546861E-03
       0.320000000000000E+00  0.111113594668858E-03
       0.330000000000000E+00  0.118192237529297E-03
       0.340000000000000E+00  0.125491886202170E-03
       0.350000000000000E+00  0.133012833794634E-03
       0.360000000000000E+00  0.140755382473919E-03
       0.370000000000000E+00  0.148719843495103E-03
       0.380000000000000E+00  0.156906537229742E-03
       0.390000000000000E+00  0.165315793195365E-03
       0.400000000000000E+00  0.173947950085827E-03
       0.410000000000000E+00  0.182803355802553E-03
       0.420000000000000E+00  0.191882367486639E-03
       0.430000000000000E+00  0.201185351551857E-03
       0.440000000000000E+00  0.210712683718528E-03
       0.450000000000000E+00  0.220464749048306E-03
       0.460000000000000E+00  0.230441941979853E-03
       0.470000000000000E+00  0.240644666365422E-03
       0.480000000000000E+00  0.251073335508351E-03
       0.490000000000000E+00  0.261728372201477E-03
       0.500000000000000E+00  0.272610208766472E-03
       0.510000000000000E+00  0.283719287094111E-03
       0.520000000000000E+00  0.295056058685478E-03
       0.530000000000000E+00  0.306620984694117E-03
       0.540000000000000E+00  0.318414535969126E-03
       0.550000000000000E+00  0.330437193099230E-03
       0.560000000000000E+00  0.342689446457788E-03
       0.570000000000000E+00  0.355171796248813E-03
       0.580000000000000E+00  0.367884752553932E-03
       0.590000000000000E+00  0.380828835380374E-03
       0.600000000000000E+00  0.394004574709915E-03
       0.610000000000000E+00  0.407412510548869E-03
       0.620000000000000E+00  0.421053192979061E-03
       0.630000000000000E+00  0.434927182209836E-03
       0.640000000000000E+00  0.449035048631103E-03
       0.650000000000000E+00  0.463377372867403E-03
       0.660000000000000E+00  0.477954745833047E-03
       0.670000000000000E+00  0.492767768788290E-03
       0.680000000000000E+00  0.507817053396599E-03
       0.690000000000000E+00  0.523103221782968E-03
       0.700000000000000E+00  0.538626906593357E-03
       0.710000000000000E+00  0.554388751055190E-03
       0.720000000000000E+00  0.570389409038993E-03
       0.730000000000000E+00  0.586629545121135E-03
       0.740000000000000E+00  0.603109834647697E-03
       0.750000000000000E+00  0.619830963799501E-03
       0.760000000000000E+00  0.636793629658256E-03
       0.770000000000000E+00  0.653998540273911E-03
       0.780000000000000E+00  0.671446414733132E-03
       0.790000000000000E+00  0.689137983229030E-03
       0.800000000000000E+00  0.707073987132012E-03
       0.810000000000000E+00  0.725255179061916E-03
       0.820000000000001E+00  0.743682322961322E-03
       0.830000000000001E+00  0.762356194170107E-03
       0.840000000000001E+00  0.781277579501283E-03
       0.850000000000001E+00  0.800447277318041E-03
       0.860000000000001E+00  0.819866097612129E-03
       0.870000000000001E+00  0.839534862083483E-03
       0.880000000000001E+00  0.859454404221190E-03
       0.890000000000001E+00  0.879625569385720E-03
       0.900000000000001E+00  0.900049214892572E-03
       0.910000000000001E+00  0.920726210097198E-03
       0.920000000000001E+00  0.941657436481304E-03
       0.930000000000001E+00  0.962843787740583E-03
       0.940000000000001E+00  0.984286169873754E-03
       0.950000000000001E+00  0.100598550127311E-02
       0.960000000000001E+00  0.102794271281640E-02
       0.970000000000001E+00  0.105015874796021E-02
       0.980000000000001E+00  0.107263456283484E-02
       0.990000000000001E+00  0.109537112634052E-02
       0.100000000000000E+01  0.111836942024531E-02
       0.101000000000000E+01  0.114163043928435E-02
       0.102000000000000E+01  0.116515519126077E-02
       0.103000000000000E+01  0.118894469714801E-02
       0.104000000000000E+01  0.121299999119386E-02
       0.105000000000000E+01  0.123732212102600E-02
       0.106000000000000E+01  0.126191214775913E-02
       0.107000000000000E+01  0.128677114610382E-02
       0.108000000000000E+01  0.131190020447688E-02
       0.109000000000000E+01  0.133730042511355E-02
       0.110000000000000E+01  0.136297292418123E-02
       0.111000000000000E+01  0.138891883189501E-02
       0.112000000000000E+01  0.141513929263496E-02
       0.113000000000000E+01  0.144163546506501E-02
       0.114000000000000E+01  0.146840852225385E-02
       0.115000000000000E+01  0.149545965179744E-02
       0.116000000000000E+01  0.152279005594341E-02
       0.117000000000000E+01  0.155040095171729E-02
       0.118000000000000E+01  0.157829357105067E-02
       0.119000000000000E+01  0.160646916091116E-02
       0.120000000000000E+01  0.163492898343437E-02
       0.121000000000000E+01  0.166367431605771E-02
       0.122000000000000E+01  0.169270645165635E-02
       0.123000000000000E+01  0.172202669868096E-02
       0.124000000000000E+01  0.175163638129764E-02
       0.125000000000000E+01  0.178153683952985E-02
       0.126000000000000E+01  0.181172942940236E-02
       0.127000000000000E+01  0.184221552308745E-02
       0.128000000000000E+01  0.187299650905305E-02
       0.129000000000000E+01  0.190407379221328E-02
       0.130000000000000E+01  0.193544879408098E-02
       0.131000000000000E+01  0.196712295292256E-02
       0.132000000000000E+01  0.199909772391513E-02
       0.133000000000000E+01  0.203137457930587E-02
       0.134000000000000E+01  0.206395500857372E-02
       0.135000000000000E+01  0.209684051859348E-02
       0.136000000000000E+01  0.213003263380224E-02
       0.137000000000000E+01  0.216353289636823E-02
       0.138000000000000E+01  0.219734286636219E-02
       0.139000000000000E+01  0.223146412193113E-02
       0.140000000000000E+01  0.226589825947468E-02
       0.141000000000000E+01  0.230064689382405E-02
       0.142000000000000E+01  0.233571165842345E-02
       0.143000000000000E+01  0.237109420551426E-02
       0.144000000000000E+01  0.240679620632184E-02
       0.145000000000000E+01  0.244281935124504E-02
       0.146000000000000E+01  0.247916535004850E-02
       0.147000000000000E+01  0.251583593205764E-02
       0.148000000000000E+01  0.255283284635667E-02
       0.149000000000000E+01  0.259015786198928E-02
       0.150000000000000E+01  0.262781276816234E-02
       0.151000000000000E+01  0.266579937445261E-02
       0.152000000000000E+01  0.270411951101633E-02
       0.153000000000000E+01  0.274277502880196E-02
       0.154000000000000E+01  0.278176779976599E-02
       0.155000000000000E+01  0.282109971709187E-02
       0.156000000000000E+01  0.286077269541212E-02
       0.157000000000000E+01  0.290078867103376E-02
       0.158000000000000E+01  0.294114960216692E-02
       0.159000000000000E+01  0.298185746915684E-02
       0.160000000000000E+01  0.302291427471929E-02
       0.161000000000000E+01  0.306432204417929E-02
       0.162000000000000E+01  0.310608282571353E-02
       0.163000000000000E+01  0.314819869059618E-02
       0.164000000000000E+01  0.319067173344834E-02
       0.165000000000000E+01  0.323350407249111E-02
       0.166000000000000E+01  0.327669784980253E-02
       0.167000000000000E+01  0.332025523157803E-02
       0.168000000000000E+01  0.336417840839493E-02
       0.169000000000000E+01  0.340846959548075E-02
       0.170000000000000E+01  0.345313103298544E-02
       0.171000000000000E+01  0.349816498625762E-02
       0.172000000000000E+01  0.354357374612502E-02
       0.173000000000000E+01  0.358935962917884E-02
       0.174000000000000E+01  0.363552497806252E-02
       0.175000000000000E+01  0.368207216176468E-02
       0.176000000000000E+01  0.372900357591642E-02
       0.177000000000000E+01  0.377632164309291E-02
       0.178000000000000E+01  0.382402881311979E-02
       0.179000000000000E+01  0.387212756338374E-02
       0.180000000000000E+01  0.392062039914790E-02
       0.181000000000000E+01  0.396950985387189E-02
       0.182000000000000E+01  0.401879848953671E-02
       0.183000000000000E+01  0.406848889697436E-02
       0.184000000000000E+01  0.411858369620248E-02
       0.185000000000000E+01  0.416908553676400E-02
       0.186000000000000E+01  0.421999709807188E-02
       0.187000000000000E+01  0.427132108975895E-02
       0.188000000000000E+01  0.432306025203312E-02
       0.189000000000000E+01  0.437521735603790E-02
       0.190000000000000E+01  0.442779520421834E-02
       0.191000000000000E+01  0.448079663069250E-02
       0.192000000000000E+01  0.453422450162862E-02
       0.193000000000000E+01  0.458808171562785E-02
       0.194000000000000E+01  0.464237120411293E-02
       0.195000000000000E+01  0.469709593172272E-02
       0.196000000000000E+01  0.475225889671276E-02
       0.197000000000000E+01  0.480786313136187E-02
       0.198000000000000E+01  0.486391170238502E-02
       0.199000000000000E+01  0.492040771135254E-02
       0.200000000000000E+01  0.497735429511569E-02
       0.201000000000000E+01  0.503475462623877E-02
       0.202000000000000E+01  0.509261191343796E-02
       0.203000000000000E+01  0.515092940202679E-02
       0.204000000000000E+01  0.520971037436851E-02
       0.205000000000000E+01  0.526895815033554E-02
       0.206000000000000E+01  0.532867608777605E-02
       0.207000000000000E+01  0.538886758298746E-02
       0.208000000000000E+01  0.544953607119775E-02
       0.209000000000000E+01  0.551068502705397E-02
       0.210000000000000E+01  0.557231796511843E-02
       0.211000000000000E+01  0.563443844037261E-02
       0.212000000000000E+01  0.569705004872913E-02
       0.213000000000000E+01  0.576015642755136E-02
       0.214000000000000E+01  0.582376125618176E-02
       0.215000000000000E+01  0.588786825647790E-02
       0.216000000000000E+01  0.595248119335744E-02
       0.217000000000000E+01  0.601760387535146E-02
       0.218000000000000E+01  0.608324015516655E-02
       0.219000000000000E+01  0.614939393025598E-02
       0.220000000000000E+01  0.621606914339968E-02
       0.221000000000000E+01  0.628326978329371E-02
       0.222000000000000E+01  0.635099988514909E-02
       0.223000000000000E+01  0.641926353129979E-02
       0.224000000000000E+01  0.648806485182133E-02
       0.225000000000000E+01  0.655740802515821E-02
       0.226000000000000E+01  0.662729727876240E-02
       0.227000000000000E+01  0.669773688974159E-02
       0.228000000000000E+01  0.676873118551780E-02
       0.229000000000000E+01  0.684028454449719E-02
       0.229999999999999E+01  0.691240139675020E-02
       0.230999999999999E+01  0.698508622470290E-02
       0.231999999999999E+01  0.705834356383988E-02
       0.232999999999999E+01  0.713217800341803E-02
       0.233999999999999E+01  0.720659418719238E-02
       0.234999999999999E+01  0.728159681415400E-02
       0.235999999999999E+01  0.735719063927957E-02
       0.236999999999999E+01  0.743338047429338E-02
       0.237999999999999E+01  0.751017118844226E-02
       0.238999999999999E+01  0.758756770928283E-02
       0.239999999999999E+01  0.766557502348213E-02
       0.240999999999999E+01  0.774419817763126E-02
       0.241999999999999E+01  0.782344227907296E-02
       0.242999999999999E+01  0.790331249674239E-02
       0.243999999999999E+01  0.798381406202260E-02
       0.244999999999999E+01  0.806495226961383E-02
       0.245999999999999E+01  0.814673247841760E-02
       0.246999999999999E+01  0.822916011243570E-02
       0.247999999999999E+01  0.831224066168421E-02
       0.248999999999999E+01  0.839597968312313E-02
       0.249999999999999E+01  0.848038280160152E-02
       0.250999999999999E+01  0.856545571081902E-02
       0.251999999999999E+01  0.865120417430328E-02
       0.252999999999999E+01  0.873763402640451E-02
       0.253999999999999E+01  0.882475117330662E-02
       0.254999999999999E+01  0.891256159405605E-02
       0.255999999999999E+01  0.900107134160803E-02
       0.256999999999999E+01  0.909028654389080E-02
       0.257999999999999E+01  0.918021340488850E-02
       0.258999999999999E+01  0.927085820574247E-02
       0.259999999999999E+01  0.936222730587163E-02
       0.260999999999999E+01  0.945432714411285E-02
       0.261999999999999E+01  0.954716423988022E-02
       0.262999999999999E+01  0.964074519434566E-02
       0.263999999999999E+01  0.973507669163937E-02
       0.264999999999999E+01  0.983016550007148E-02
       0.265999999999999E+01  0.992601847337585E-02
       0.266999999999999E+01  0.100226425519747E-01
       0.267999999999999E+01  0.101200447642665E-01
       0.268999999999999E+01  0.102182322279364E-01
       0.269999999999999E+01  0.103172121512897E-01
       0.270999999999999E+01  0.104169918346092E-01
       0.271999999999999E+01  0.105175786715370E-01
       0.272999999999999E+01  0.106189801504808E-01
       0.273999999999999E+01  0.107212038560454E-01
       0.274999999999999E+01  0.108242574704903E-01
       0.275999999999999E+01  0.109281487752128E-01
       0.276999999999998E+01  0.110328856522587E-01
       0.277999999999998E+01  0.111384760858604E-01
       0.278999999999998E+01  0.112449281640020E-01
       0.279999999999998E+01  0.113522500800140E-01
       0.280999999999998E+01  0.114604501341964E-01
       0.281999999999998E+01  0.115695367354721E-01
       0.282999999999998E+01  0.116795184030699E-01
       0.283999999999998E+01  0.117904037682396E-01
       0.284999999999998E+01  0.119022015759969E-01
       0.285999999999998E+01  0.120149206869032E-01
       0.286999999999998E+01  0.121285700788755E-01
       0.287999999999998E+01  0.122431588490325E-01
       0.288999999999998E+01  0.123586962155736E-01
       0.289999999999998E+01  0.124751915196936E-01
       0.290999999999998E+01  0.125926542275328E-01
       0.291999999999998E+01  0.127110939321646E-01
       0.292999999999998E+01  0.128305203556199E-01
       0.293999999999998E+01  0.129509433509500E-01
       0.294999999999998E+01  0.130723729043284E-01
       0.295999999999998E+01  0.131948191371927E-01
       0.296999999999998E+01  0.133182923084274E-01
       0.297999999999998E+01  0.134428028165882E-01
       0.298999999999998E+01  0.135683612021692E-01
       0.299999999999998E+01  0.136949781499128E-01
       0.300999999999998E+01  0.138226644911658E-01
       0.301999999999998E+01  0.139514312062787E-01
       0.302999999999998E+01  0.140812894270541E-01
       0.303999999999998E+01  0.142122504392400E-01
       0.304999999999998E+01  0.143443256850737E-01
       0.305999999999998E+01  0.144775267658745E-01
       0.306999999999998E+01  0.146118654446872E-01
       0.307999999999998E+01  0.147473536489777E-01
       0.308999999999998E+01  0.148840034733815E-01
       0.309999999999998E+01  0.150218271825072E-01
       0.310999999999998E+01  0.151608372137939E-01
       0.311999999999998E+01  0.153010461804277E-01
       0.312999999999998E+01  0.154424668743139E-01
       0.313999999999998E+01  0.155851122691107E-01
       0.314999999999998E+01  0.157289955233218E-01
       0.315999999999998E+01  0.158741299834529E-01
       0.316999999999998E+01  0.160205291872305E-01
       0.317999999999998E+01  0.161682068668863E-01
       0.318999999999998E+01  0.163171769525082E-01
       0.319999999999998E+01  0.164674535754597E-01
       0.320999999999998E+01  0.166190510718678E-01
       0.321999999999998E+01  0.167719839861842E-01
       0.322999999999998E+01  0.169262670748178E-01
       0.323999999999997E+01  0.170819153098427E-01
       0.324999999999997E+01  0.172389438827829E-01
       0.325999999999997E+01  0.173973682084746E-01
       0.326999999999997E+01  0.175572039290097E-01
       0.327999999999997E+01  0.177184669177605E-01
       0.328999999999997E+01  0.178811732834886E-01
       0.329999999999997E+01  0.180453393745403E-01
       0.330999999999997E+01  0.182109817831304E-01
       0.331999999999997E+01  0.183781173497145E-01
       0.332999999999997E+01  0.185467631674564E-01
       0.333999999999997E+01  0.187169365867879E-01
       0.334999999999997E+01  0.188886552200671E-01
       0.335999999999997E+01  0.190619369463352E-01
       0.336999999999997E+01  0.192367999161753E-01
       0.337999999999997E+01  0.194132625566761E-01
       0.338999999999997E+01  0.195913435765016E-01
       0.339999999999997E+01  0.197710619710709E-01
       0.340999999999997E+01  0.199524370278500E-01
       0.341999999999997E+01  0.201354883317587E-01
       0.342999999999997E+01  0.203202357706957E-01
       0.343999999999997E+01  0.205066995411840E-01
       0.344999999999997E+01  0.206949001541404E-01
       0.345999999999997E+01  0.208848584407727E-01
       0.346999999999997E+01  0.210765955586056E-01
       0.347999999999997E+01  0.212701329976421E-01
       0.348999999999997E+01  0.214654925866604E-01
       0.349999999999997E+01  0.216626964996513E-01
       0.350999999999997E+01  0.218617672624008E-01
       0.351999999999997E+01  0.220627277592191E-01
       0.352999999999997E+01  0.222656012398218E-01
       0.353999999999997E+01  0.224704113263667E-01
       0.354999999999997E+01  0.226771820206499E-01
       0.355999999999997E+01  0.228859377114653E-01
       0.356999999999997E+01  0.230967031821322E-01
       0.357999999999997E+01  0.233095036181962E-01
       0.358999999999997E+01  0.235243646153048E-01
       0.359999999999997E+01  0.237413121872677E-01
       0.360999999999997E+01  0.239603727742999E-01
       0.361999999999997E+01  0.241815732514586E-01
       0.362999999999997E+01  0.244049409372764E-01
       0.363999999999997E+01  0.246305036025943E-01
       0.364999999999997E+01  0.248582894796046E-01
       0.365999999999997E+01  0.250883272711036E-01
       0.366999999999997E+01  0.253206461599649E-01
       0.367999999999997E+01  0.255552758188358E-01
       0.368999999999997E+01  0.257922464200653E-01
       0.369999999999997E+01  0.260315886458669E-01
       0.370999999999996E+01  0.262733336987276E-01
       0.371999999999996E+01  0.265175133120637E-01
       0.372999999999996E+01  0.267641597611355E-01
       0.373999999999996E+01  0.270133058742257E-01
       0.374999999999996E+01  0.272649850440884E-01
       0.375999999999996E+01  0.275192312396776E-01
       0.376999999999996E+01  0.277760790181619E-01
       0.377999999999996E+01  0.280355635372345E-01
       0.378999999999996E+01  0.282977205677260E-01
       0.379999999999996E+01  0.285625865065287E-01
       0.380999999999996E+01  0.288301983898425E-01
       0.381999999999996E+01  0.291005939067477E-01
