#          \hbar \omega(eV)    Oscillator strength
       0.000000000000000E+00  -.000000000000000E+00
       0.100000000000000E-01  0.218265278165316E-06
       0.200000000000000E-01  0.873069609003447E-06
       0.300000000000000E-01  0.196443848229754E-05
       0.400000000000000E-01  0.349241438354163E-05
       0.500000000000000E-01  0.545705679772422E-05
       0.600000000000000E-01  0.785844221462621E-05
       0.700000000000000E-01  0.106966641356338E-04
       0.800000000000000E-01  0.139718330820677E-04
       0.900000000000000E-01  0.176840766050298E-04
       0.100000000000000E+00  0.218335392967692E-04
       0.110000000000000E+00  0.264203828035684E-04
       0.120000000000000E+00  0.314447858401530E-04
       0.130000000000000E+00  0.369069442056266E-04
       0.140000000000000E+00  0.428070708009330E-04
       0.150000000000000E+00  0.491453956478492E-04
       0.160000000000000E+00  0.559221659095121E-04
       0.170000000000000E+00  0.631376459124809E-04
       0.180000000000000E+00  0.707921171703414E-04
       0.190000000000000E+00  0.788858784088529E-04
       0.200000000000000E+00  0.874192455926436E-04
       0.210000000000000E+00  0.963925519534581E-04
       0.220000000000000E+00  0.105806148019962E-03
       0.230000000000000E+00  0.115660401649108E-03
       0.240000000000000E+00  0.125955698059066E-03
       0.250000000000000E+00  0.136692439863731E-03
       0.260000000000000E+00  0.147871047108800E-03
       0.270000000000000E+00  0.159491957309439E-03
       0.280000000000000E+00  0.171555625489534E-03
       0.290000000000000E+00  0.184062524222539E-03
       0.300000000000000E+00  0.197013143673931E-03
       0.310000000000000E+00  0.210407991645259E-03
       0.320000000000000E+00  0.224247593619827E-03
       0.330000000000000E+00  0.238532492809985E-03
       0.340000000000000E+00  0.253263250206060E-03
       0.350000000000000E+00  0.268440444626921E-03
       0.360000000000000E+00  0.284064672772187E-03
       0.370000000000000E+00  0.300136549276101E-03
       0.380000000000000E+00  0.316656706763053E-03
       0.390000000000000E+00  0.333625795904792E-03
       0.400000000000000E+00  0.351044485479298E-03
       0.410000000000000E+00  0.368913462431369E-03
       0.420000000000000E+00  0.387233431934895E-03
       0.430000000000000E+00  0.406005117456840E-03
       0.440000000000000E+00  0.425229260822957E-03
       0.450000000000000E+00  0.444906622285227E-03
       0.460000000000000E+00  0.465037980591042E-03
       0.470000000000000E+00  0.485624133054145E-03
       0.480000000000000E+00  0.506665895627334E-03
       0.490000000000000E+00  0.528164102976940E-03
       0.500000000000000E+00  0.550119608559104E-03
       0.510000000000000E+00  0.572533284697846E-03
       0.520000000000000E+00  0.595406022664956E-03
       0.530000000000000E+00  0.618738732761709E-03
       0.540000000000000E+00  0.642532344402422E-03
       0.550000000000000E+00  0.666787806199869E-03
       0.560000000000000E+00  0.691506086052568E-03
       0.570000000000000E+00  0.716688171233933E-03
       0.580000000000000E+00  0.742335068483352E-03
       0.590000000000000E+00  0.768447804099161E-03
       0.600000000000000E+00  0.795027424033551E-03
       0.610000000000000E+00  0.822074993989406E-03
       0.620000000000000E+00  0.849591599519139E-03
       0.630000000000000E+00  0.877578346125455E-03
       0.640000000000000E+00  0.906036359364155E-03
       0.650000000000000E+00  0.934966784948911E-03
       0.660000000000000E+00  0.964370788858097E-03
       0.670000000000000E+00  0.994249557443653E-03
       0.680000000000000E+00  0.102460429754203E-02
       0.690000000000000E+00  0.105543623658717E-02
       0.700000000000000E+00  0.108674662272567E-02
       0.710000000000000E+00  0.111853672493399E-02
       0.720000000000000E+00  0.115080783313785E-02
       0.730000000000000E+00  0.118356125833375E-02
       0.740000000000000E+00  0.121679833271273E-02
       0.750000000000000E+00  0.125052040978626E-02
       0.760000000000000E+00  0.128472886451441E-02
       0.770000000000000E+00  0.131942509343627E-02
       0.780000000000000E+00  0.135461051480257E-02
       0.790000000000000E+00  0.139028656871068E-02
       0.800000000000000E+00  0.142645471724186E-02
       0.810000000000000E+00  0.146311644460090E-02
       0.820000000000001E+00  0.150027325725806E-02
       0.830000000000001E+00  0.153792668409346E-02
       0.840000000000001E+00  0.157607827654383E-02
       0.850000000000001E+00  0.161472960875174E-02
       0.860000000000001E+00  0.165388227771728E-02
       0.870000000000001E+00  0.169353790345219E-02
       0.880000000000001E+00  0.173369812913657E-02
       0.890000000000001E+00  0.177436462127810E-02
       0.900000000000001E+00  0.181553906987383E-02
       0.910000000000001E+00  0.185722318857457E-02
       0.920000000000001E+00  0.189941871485193E-02
       0.930000000000001E+00  0.194212741016801E-02
       0.940000000000001E+00  0.198535106014775E-02
       0.950000000000001E+00  0.202909147475404E-02
       0.960000000000001E+00  0.207335048846556E-02
       0.970000000000001E+00  0.211812996045741E-02
       0.980000000000001E+00  0.216343177478455E-02
       0.990000000000001E+00  0.220925784056807E-02
       0.100000000000000E+01  0.225561009218438E-02
       0.101000000000000E+01  0.230249048945730E-02
       0.102000000000000E+01  0.234990101785307E-02
       0.103000000000000E+01  0.239784368867838E-02
       0.104000000000000E+01  0.244632053928142E-02
       0.105000000000000E+01  0.249533363325595E-02
       0.106000000000000E+01  0.254488506064853E-02
       0.107000000000000E+01  0.259497693816880E-02
       0.108000000000000E+01  0.264561140940303E-02
       0.109000000000000E+01  0.269679064503075E-02
       0.110000000000000E+01  0.274851684304480E-02
       0.111000000000000E+01  0.280079222897448E-02
       0.112000000000000E+01  0.285361905611222E-02
       0.113000000000000E+01  0.290699960574347E-02
       0.114000000000000E+01  0.296093618738011E-02
       0.115000000000000E+01  0.301543113899723E-02
       0.116000000000000E+01  0.307048682727358E-02
       0.117000000000000E+01  0.312610564783530E-02
       0.118000000000000E+01  0.318229002550353E-02
       0.119000000000000E+01  0.323904241454552E-02
       0.120000000000000E+01  0.329636529892940E-02
       0.121000000000000E+01  0.335426119258276E-02
       0.122000000000000E+01  0.341273263965505E-02
       0.123000000000000E+01  0.347178221478370E-02
       0.124000000000000E+01  0.353141252336420E-02
       0.125000000000000E+01  0.359162620182419E-02
       0.126000000000000E+01  0.365242591790139E-02
       0.127000000000000E+01  0.371381437092571E-02
       0.128000000000000E+01  0.377579429210542E-02
       0.129000000000000E+01  0.383836844481746E-02
       0.130000000000000E+01  0.390153962490194E-02
       0.131000000000000E+01  0.396531066096107E-02
       0.132000000000000E+01  0.402968441466219E-02
       0.133000000000000E+01  0.409466378104541E-02
       0.134000000000000E+01  0.416025168883548E-02
       0.135000000000000E+01  0.422645110075841E-02
       0.136000000000000E+01  0.429326501386256E-02
       0.137000000000000E+01  0.436069645984425E-02
       0.138000000000000E+01  0.442874850537835E-02
       0.139000000000000E+01  0.449742425245336E-02
       0.140000000000000E+01  0.456672683871153E-02
       0.141000000000000E+01  0.463665943779385E-02
       0.142000000000000E+01  0.470722525968989E-02
       0.143000000000000E+01  0.477842755109290E-02
       0.144000000000000E+01  0.485026959575986E-02
       0.145000000000000E+01  0.492275471487683E-02
       0.146000000000000E+01  0.499588626742955E-02
       0.147000000000000E+01  0.506966765057934E-02
       0.148000000000000E+01  0.514410230004448E-02
       0.149000000000000E+01  0.521919369048711E-02
       0.150000000000000E+01  0.529494533590569E-02
       0.151000000000000E+01  0.537136079003302E-02
       0.152000000000000E+01  0.544844364674037E-02
       0.153000000000000E+01  0.552619754044692E-02
       0.154000000000000E+01  0.560462614653558E-02
       0.155000000000000E+01  0.568373318177461E-02
       0.156000000000000E+01  0.576352240474539E-02
       0.157000000000000E+01  0.584399761627633E-02
       0.158000000000000E+01  0.592516265988322E-02
       0.159000000000000E+01  0.600702142221571E-02
       0.160000000000000E+01  0.608957783351056E-02
       0.161000000000000E+01  0.617283586805123E-02
       0.162000000000000E+01  0.625679954463427E-02
       0.163000000000000E+01  0.634147292704242E-02
       0.164000000000000E+01  0.642686012452475E-02
       0.165000000000000E+01  0.651296529228351E-02
       0.166000000000000E+01  0.659979263196832E-02
       0.167000000000000E+01  0.668734639217748E-02
       0.168000000000000E+01  0.677563086896656E-02
       0.169000000000000E+01  0.686465040636449E-02
       0.170000000000000E+01  0.695440939689714E-02
       0.171000000000000E+01  0.704491228211853E-02
       0.172000000000000E+01  0.713616355315002E-02
       0.173000000000000E+01  0.722816775122709E-02
       0.174000000000000E+01  0.732092946825444E-02
       0.175000000000000E+01  0.741445334736905E-02
       0.176000000000000E+01  0.750874408351167E-02
       0.177000000000000E+01  0.760380642400659E-02
       0.178000000000000E+01  0.769964516915004E-02
       0.179000000000000E+01  0.779626517280737E-02
       0.180000000000000E+01  0.789367134301876E-02
       0.181000000000000E+01  0.799186864261425E-02
       0.182000000000000E+01  0.809086208983766E-02
       0.183000000000000E+01  0.819065675897976E-02
       0.184000000000000E+01  0.829125778102106E-02
       0.185000000000000E+01  0.839267034428389E-02
       0.186000000000000E+01  0.849489969509437E-02
       0.187000000000000E+01  0.859795113845423E-02
       0.188000000000000E+01  0.870183003872258E-02
       0.189000000000000E+01  0.880654182030798E-02
       0.190000000000000E+01  0.891209196837085E-02
       0.191000000000000E+01  0.901848602953633E-02
       0.192000000000000E+01  0.912572961261802E-02
       0.193000000000000E+01  0.923382838935249E-02
       0.194000000000000E+01  0.934278809514482E-02
       0.195000000000000E+01  0.945261452982561E-02
       0.196000000000000E+01  0.956331355841904E-02
       0.197000000000000E+01  0.967489111192303E-02
       0.198000000000000E+01  0.978735318810093E-02
       0.199000000000000E+01  0.990070585228524E-02
       0.200000000000000E+01  0.100149552381937E-01
       0.201000000000000E+01  0.101301075487577E-01
       0.202000000000000E+01  0.102461690569635E-01
       0.203000000000000E+01  0.103631461067060E-01
       0.204000000000000E+01  0.104810451136558E-01
       0.205000000000000E+01  0.105998725661398E-01
       0.206000000000000E+01  0.107196350260347E-01
       0.207000000000000E+01  0.108403391296749E-01
       0.208000000000000E+01  0.109619915887740E-01
       0.209000000000000E+01  0.110845991913610E-01
       0.210000000000000E+01  0.112081688027299E-01
       0.211000000000000E+01  0.113327073664058E-01
       0.212000000000000E+01  0.114582219051240E-01
       0.213000000000000E+01  0.115847195218262E-01
       0.214000000000000E+01  0.117122074006709E-01
       0.215000000000000E+01  0.118406928080600E-01
       0.216000000000000E+01  0.119701830936819E-01
       0.217000000000000E+01  0.121006856915702E-01
       0.218000000000000E+01  0.122322081211796E-01
       0.219000000000000E+01  0.123647579884786E-01
       0.220000000000000E+01  0.124983429870593E-01
       0.221000000000000E+01  0.126329708992649E-01
       0.222000000000000E+01  0.127686495973347E-01
       0.223000000000000E+01  0.129053870445682E-01
       0.224000000000000E+01  0.130431912965063E-01
       0.225000000000000E+01  0.131820705021324E-01
       0.226000000000000E+01  0.133220329050926E-01
       0.227000000000000E+01  0.134630868449346E-01
       0.228000000000000E+01  0.136052407583676E-01
       0.229000000000000E+01  0.137485031805414E-01
       0.229999999999999E+01  0.138928827463468E-01
       0.230999999999999E+01  0.140383881917365E-01
       0.231999999999999E+01  0.141850283550678E-01
       0.232999999999999E+01  0.143328121784666E-01
       0.233999999999999E+01  0.144817487092136E-01
       0.234999999999999E+01  0.146318471011538E-01
       0.235999999999999E+01  0.147831166161277E-01
       0.236999999999999E+01  0.149355666254265E-01
       0.237999999999999E+01  0.150892066112720E-01
       0.238999999999999E+01  0.152440461683187E-01
       0.239999999999999E+01  0.154000950051830E-01
       0.240999999999999E+01  0.155573629459955E-01
       0.241999999999999E+01  0.157158599319803E-01
       0.242999999999999E+01  0.158755960230602E-01
       0.243999999999999E+01  0.160365813994876E-01
       0.244999999999999E+01  0.161988263635040E-01
       0.245999999999999E+01  0.163623413410259E-01
       0.246999999999999E+01  0.165271368833596E-01
       0.247999999999999E+01  0.166932236689440E-01
       0.248999999999999E+01  0.168606125051237E-01
       0.249999999999999E+01  0.170293143299509E-01
       0.250999999999999E+01  0.171993402140178E-01
       0.251999999999999E+01  0.173707013623210E-01
       0.252999999999999E+01  0.175434091161556E-01
       0.253999999999999E+01  0.177174749550436E-01
       0.254999999999999E+01  0.178929104986932E-01
       0.255999999999999E+01  0.180697275089926E-01
       0.256999999999999E+01  0.182479378920377E-01
       0.257999999999999E+01  0.184275537001944E-01
       0.258999999999999E+01  0.186085871341960E-01
       0.259999999999999E+01  0.187910505452777E-01
       0.260999999999999E+01  0.189749564373467E-01
       0.261999999999999E+01  0.191603174691906E-01
       0.262999999999999E+01  0.193471464567240E-01
       0.263999999999999E+01  0.195354563752740E-01
       0.264999999999999E+01  0.197252603619055E-01
       0.265999999999999E+01  0.199165717177872E-01
       0.266999999999999E+01  0.201094039105992E-01
       0.267999999999999E+01  0.203037705769824E-01
       0.268999999999999E+01  0.204996855250314E-01
       0.269999999999999E+01  0.206971627368310E-01
       0.270999999999999E+01  0.208962163710385E-01
       0.271999999999999E+01  0.210968607655102E-01
       0.272999999999999E+01  0.212991104399757E-01
       0.273999999999999E+01  0.215029800987601E-01
       0.274999999999999E+01  0.217084846335538E-01
       0.275999999999999E+01  0.219156391262324E-01
       0.276999999999998E+01  0.221244588517277E-01
       0.277999999999998E+01  0.223349592809494E-01
       0.278999999999998E+01  0.225471560837604E-01
       0.279999999999998E+01  0.227610651320055E-01
       0.280999999999998E+01  0.229767025025950E-01
       0.281999999999998E+01  0.231940844806449E-01
       0.282999999999998E+01  0.234132275626733E-01
       0.283999999999998E+01  0.236341484598565E-01
       0.284999999999998E+01  0.238568641013440E-01
       0.285999999999998E+01  0.240813916376343E-01
       0.286999999999998E+01  0.243077484440140E-01
       0.287999999999998E+01  0.245359521240585E-01
       0.288999999999998E+01  0.247660205131999E-01
       0.289999999999998E+01  0.249979716823592E-01
       0.290999999999998E+01  0.252318239416472E-01
       0.291999999999998E+01  0.254675958441341E-01
       0.292999999999998E+01  0.257053061896903E-01
       0.293999999999998E+01  0.259449740288981E-01
       0.294999999999998E+01  0.261866186670383E-01
       0.295999999999998E+01  0.264302596681520E-01
       0.296999999999998E+01  0.266759168591772E-01
       0.297999999999998E+01  0.269236103341679E-01
       0.298999999999998E+01  0.271733604585890E-01
       0.299999999999998E+01  0.274251878736971E-01
       0.300999999999998E+01  0.276791135010021E-01
       0.301999999999998E+01  0.279351585468166E-01
       0.302999999999998E+01  0.281933445068916E-01
       0.303999999999998E+01  0.284536931711422E-01
       0.304999999999998E+01  0.287162266284649E-01
       0.305999999999998E+01  0.289809672716480E-01
       0.306999999999998E+01  0.292479378023772E-01
       0.307999999999998E+01  0.295171612363407E-01
       0.308999999999998E+01  0.297886609084318E-01
       0.309999999999998E+01  0.300624604780558E-01
       0.310999999999998E+01  0.303385839345398E-01
       0.311999999999998E+01  0.306170556026503E-01
       0.312999999999998E+01  0.308979001482196E-01
       0.313999999999998E+01  0.311811425838844E-01
       0.314999999999998E+01  0.314668082749378E-01
       0.315999999999998E+01  0.317549229452992E-01
       0.316999999999998E+01  0.320455126836038E-01
       0.317999999999998E+01  0.323386039494130E-01
       0.318999999999998E+01  0.326342235795520E-01
       0.319999999999998E+01  0.329323987945746E-01
       0.320999999999998E+01  0.332331572053575E-01
       0.321999999999998E+01  0.335365268198325E-01
       0.322999999999998E+01  0.338425360498518E-01
       0.323999999999997E+01  0.341512137181967E-01
       0.324999999999997E+01  0.344625890657281E-01
       0.325999999999997E+01  0.347766917586865E-01
       0.326999999999997E+01  0.350935518961397E-01
       0.327999999999997E+01  0.354132000175877E-01
       0.328999999999997E+01  0.357356671107229E-01
       0.329999999999997E+01  0.360609846193538E-01
       0.330999999999997E+01  0.363891844514938E-01
       0.331999999999997E+01  0.367202989876192E-01
       0.332999999999997E+01  0.370543610891009E-01
       0.333999999999997E+01  0.373914041068142E-01
       0.334999999999997E+01  0.377314618899306E-01
       0.335999999999997E+01  0.380745687948964E-01
       0.336999999999997E+01  0.384207596946017E-01
       0.337999999999997E+01  0.387700699877462E-01
       0.338999999999997E+01  0.391225356084054E-01
       0.339999999999997E+01  0.394781930358018E-01
       0.340999999999997E+01  0.398370793042868E-01
       0.341999999999997E+01  0.401992320135403E-01
       0.342999999999997E+01  0.405646893389887E-01
       0.343999999999997E+01  0.409334900424519E-01
       0.344999999999997E+01  0.413056734830220E-01
       0.345999999999997E+01  0.416812796281805E-01
       0.346999999999997E+01  0.420603490651596E-01
       0.347999999999997E+01  0.424429230125546E-01
       0.348999999999997E+01  0.428290433321923E-01
       0.349999999999997E+01  0.432187525412642E-01
       0.350999999999997E+01  0.436120938247283E-01
       0.351999999999997E+01  0.440091110479900E-01
       0.352999999999997E+01  0.444098487698646E-01
       0.353999999999997E+01  0.448143522558343E-01
       0.354999999999997E+01  0.452226674916022E-01
       0.355999999999997E+01  0.456348411969545E-01
       0.356999999999997E+01  0.460509208399372E-01
       0.357999999999997E+01  0.464709546513551E-01
       0.358999999999997E+01  0.468949916396048E-01
       0.359999999999997E+01  0.473230816058461E-01
       0.360999999999997E+01  0.477552751595231E-01
       0.361999999999997E+01  0.481916237342445E-01
       0.362999999999997E+01  0.486321796040332E-01
       0.363999999999997E+01  0.490769958999512E-01
       0.364999999999997E+01  0.495261266271159E-01
       0.365999999999997E+01  0.499796266821129E-01
       0.366999999999997E+01  0.504375518708193E-01
       0.367999999999997E+01  0.508999589266473E-01
       0.368999999999997E+01  0.513669055292205E-01
       0.369999999999997E+01  0.518384503234928E-01
       0.370999999999996E+01  0.523146529393244E-01
       0.371999999999996E+01  0.527955740115254E-01
       0.372999999999996E+01  0.532812752003826E-01
       0.373999999999996E+01  0.537718192126788E-01
       0.374999999999996E+01  0.542672698232220E-01
       0.375999999999996E+01  0.547676918968981E-01
       0.376999999999996E+01  0.552731514112597E-01
       0.377999999999996E+01  0.557837154796673E-01
       0.378999999999996E+01  0.562994523750003E-01
       0.379999999999996E+01  0.568204315539505E-01
       0.380999999999996E+01  0.573467236819174E-01
       0.381999999999996E+01  0.578784006585211E-01
