#          \hbar \omega(eV)    Oscillator strength
       0.000000000000000E+00  -.000000000000000E+00
       0.100000000000000E-01  0.109181845210741E-06
       0.200000000000000E-01  0.436731634863138E-06
       0.300000000000000E-01  0.982662131397059E-06
       0.400000000000000E-01  0.174699460681015E-05
       0.500000000000000E-01  0.272975884455486E-05
       0.600000000000000E-01  0.393099314219464E-05
       0.700000000000000E-01  0.535074431481986E-05
       0.800000000000000E-01  0.698906769922387E-05
       0.900000000000000E-01  0.884602715883994E-05
       0.100000000000000E+00  0.109216950894398E-04
       0.110000000000000E+00  0.132161524255946E-04
       0.120000000000000E+00  0.157294886478997E-04
       0.130000000000000E+00  0.184618017909643E-04
       0.140000000000000E+00  0.214131984521661E-04
       0.150000000000000E+00  0.245837938011744E-04
       0.160000000000000E+00  0.279737115902418E-04
       0.170000000000000E+00  0.315830841652660E-04
       0.180000000000000E+00  0.354120524776243E-04
       0.190000000000000E+00  0.394607660967819E-04
       0.200000000000000E+00  0.437293832236770E-04
       0.210000000000000E+00  0.482180707048830E-04
       0.220000000000000E+00  0.529270040475530E-04
       0.230000000000000E+00  0.578563674351453E-04
       0.240000000000000E+00  0.630063537439353E-04
       0.250000000000000E+00  0.683771645603164E-04
       0.260000000000000E+00  0.739690101988893E-04
       0.270000000000000E+00  0.797821097213472E-04
       0.280000000000000E+00  0.858166909561571E-04
       0.290000000000000E+00  0.920729905190408E-04
       0.300000000000000E+00  0.985512538342582E-04
       0.310000000000000E+00  0.105251735156699E-03
       0.320000000000000E+00  0.112174697594784E-03
       0.330000000000000E+00  0.119320413134179E-03
       0.340000000000000E+00  0.126689162662324E-03
       0.350000000000000E+00  0.134281235993795E-03
       0.360000000000000E+00  0.142096931896477E-03
       0.370000000000000E+00  0.150136558118570E-03
       0.380000000000000E+00  0.158400431416443E-03
       0.390000000000000E+00  0.166888877583307E-03
       0.400000000000000E+00  0.175602231478744E-03
       0.410000000000000E+00  0.184540837059081E-03
       0.420000000000000E+00  0.193705047408613E-03
       0.430000000000000E+00  0.203095224771689E-03
       0.440000000000000E+00  0.212711740585663E-03
       0.450000000000000E+00  0.222554975514708E-03
       0.460000000000000E+00  0.232625319484503E-03
       0.470000000000000E+00  0.242923171717807E-03
       0.480000000000000E+00  0.253448940770917E-03
       0.490000000000000E+00  0.264203044571009E-03
       0.500000000000000E+00  0.275185910454387E-03
       0.510000000000000E+00  0.286397975205630E-03
       0.520000000000000E+00  0.297839685097654E-03
       0.530000000000000E+00  0.309511495932682E-03
       0.540000000000000E+00  0.321413873084149E-03
       0.550000000000000E+00  0.333547291539530E-03
       0.560000000000000E+00  0.345912235944105E-03
       0.570000000000000E+00  0.358509200645673E-03
       0.580000000000000E+00  0.371338689740219E-03
       0.590000000000000E+00  0.384401217118532E-03
       0.600000000000000E+00  0.397697306513804E-03
       0.610000000000000E+00  0.411227491550188E-03
       0.620000000000000E+00  0.424992315792354E-03
       0.630000000000000E+00  0.438992332796030E-03
       0.640000000000000E+00  0.453228106159544E-03
       0.650000000000000E+00  0.467700209576371E-03
       0.660000000000000E+00  0.482409226888708E-03
       0.670000000000000E+00  0.497355752142060E-03
       0.680000000000000E+00  0.512540389640878E-03
       0.690000000000000E+00  0.527963754005232E-03
       0.700000000000000E+00  0.543626470228536E-03
       0.710000000000000E+00  0.559529173736351E-03
       0.720000000000000E+00  0.575672510446246E-03
       0.730000000000000E+00  0.592057136828754E-03
       0.740000000000000E+00  0.608683719969424E-03
       0.750000000000000E+00  0.625552937631962E-03
       0.760000000000000E+00  0.642665478322517E-03
       0.770000000000000E+00  0.660022041355062E-03
       0.780000000000000E+00  0.677623336917939E-03
       0.790000000000000E+00  0.695470086141541E-03
       0.800000000000000E+00  0.713563021167150E-03
       0.810000000000000E+00  0.731902885216975E-03
       0.820000000000001E+00  0.750490432665332E-03
       0.830000000000001E+00  0.769326429111068E-03
       0.840000000000001E+00  0.788411651451159E-03
       0.850000000000001E+00  0.807746887955547E-03
       0.860000000000001E+00  0.827332938343226E-03
       0.870000000000001E+00  0.847170613859540E-03
       0.880000000000001E+00  0.867260737354780E-03
       0.890000000000001E+00  0.887604143364048E-03
       0.900000000000001E+00  0.908201678188394E-03
       0.910000000000001E+00  0.929054199977283E-03
       0.920000000000001E+00  0.950162578812368E-03
       0.930000000000001E+00  0.971527696792593E-03
       0.940000000000001E+00  0.993150448120661E-03
       0.950000000000001E+00  0.101503173919085E-02
       0.960000000000001E+00  0.103717248867824E-02
       0.970000000000001E+00  0.105957362762925E-02
       0.980000000000001E+00  0.108223609955375E-02
       0.990000000000001E+00  0.110516086051842E-02
       0.100000000000000E+01  0.112834887924166E-02
       0.101000000000000E+01  0.115180113718997E-02
       0.102000000000000E+01  0.117551862867575E-02
       0.103000000000000E+01  0.119950236095665E-02
       0.104000000000000E+01  0.122375335433639E-02
       0.105000000000000E+01  0.124827264226718E-02
       0.106000000000000E+01  0.127306127145363E-02
       0.107000000000000E+01  0.129812030195825E-02
       0.108000000000000E+01  0.132345080730858E-02
       0.109000000000000E+01  0.134905387460586E-02
       0.110000000000000E+01  0.137493060463541E-02
       0.111000000000000E+01  0.140108211197861E-02
       0.112000000000000E+01  0.142750952512655E-02
       0.113000000000000E+01  0.145421398659543E-02
       0.114000000000000E+01  0.148119665304361E-02
       0.115000000000000E+01  0.150845869539042E-02
       0.116000000000000E+01  0.153600129893675E-02
       0.117000000000000E+01  0.156382566348743E-02
       0.118000000000000E+01  0.159193300347534E-02
       0.119000000000000E+01  0.162032454808743E-02
       0.120000000000000E+01  0.164900154139259E-02
       0.121000000000000E+01  0.167796524247134E-02
       0.122000000000000E+01  0.170721692554746E-02
       0.123000000000000E+01  0.173675788012156E-02
       0.124000000000000E+01  0.176658941110660E-02
       0.125000000000000E+01  0.179671283896533E-02
       0.126000000000000E+01  0.182712949984982E-02
       0.127000000000000E+01  0.185784074574298E-02
       0.128000000000000E+01  0.188884794460213E-02
       0.129000000000000E+01  0.192015248050473E-02
       0.130000000000000E+01  0.195175575379608E-02
       0.131000000000000E+01  0.198365918123936E-02
       0.132000000000000E+01  0.201586419616766E-02
       0.133000000000000E+01  0.204837224863839E-02
       0.134000000000000E+01  0.208118480558975E-02
       0.135000000000000E+01  0.211430335099960E-02
       0.136000000000000E+01  0.214772938604660E-02
       0.137000000000000E+01  0.218146442927365E-02
       0.138000000000000E+01  0.221551001675366E-02
       0.139000000000000E+01  0.224986770225790E-02
       0.140000000000000E+01  0.228453905742651E-02
       0.141000000000000E+01  0.231952567194171E-02
       0.142000000000000E+01  0.235482915370338E-02
       0.143000000000000E+01  0.239045112900723E-02
       0.144000000000000E+01  0.242639324272554E-02
       0.145000000000000E+01  0.246265715849047E-02
       0.146000000000000E+01  0.249924455888011E-02
       0.147000000000000E+01  0.253615714560712E-02
       0.148000000000000E+01  0.257339663971011E-02
       0.149000000000000E+01  0.261096478174790E-02
       0.150000000000000E+01  0.264886333199643E-02
       0.151000000000000E+01  0.268709407064860E-02
       0.152000000000000E+01  0.272565879801701E-02
       0.153000000000000E+01  0.276455933473963E-02
       0.154000000000000E+01  0.280379752198836E-02
       0.155000000000000E+01  0.284337522168078E-02
       0.156000000000000E+01  0.288329431669478E-02
       0.157000000000000E+01  0.292355671108647E-02
       0.158000000000000E+01  0.296416433031111E-02
       0.159000000000000E+01  0.300511912144737E-02
       0.160000000000000E+01  0.304642305342472E-02
       0.161000000000000E+01  0.308807811725422E-02
       0.162000000000000E+01  0.313008632626268E-02
       0.163000000000000E+01  0.317244971633010E-02
       0.164000000000000E+01  0.321517034613073E-02
       0.165000000000000E+01  0.325825029737749E-02
       0.166000000000000E+01  0.330169167507011E-02
       0.167000000000000E+01  0.334549660774676E-02
       0.168000000000000E+01  0.338966724773943E-02
       0.169000000000000E+01  0.343420577143301E-02
       0.170000000000000E+01  0.347911437952818E-02
       0.171000000000000E+01  0.352439529730818E-02
       0.172000000000000E+01  0.357005077490942E-02
       0.173000000000000E+01  0.361608308759613E-02
       0.174000000000000E+01  0.366249453603900E-02
       0.175000000000000E+01  0.370928744659803E-02
       0.176000000000000E+01  0.375646417160930E-02
       0.177000000000000E+01  0.380402708967629E-02
       0.178000000000000E+01  0.385197860596524E-02
       0.179000000000000E+01  0.390032115250503E-02
       0.180000000000000E+01  0.394905718849142E-02
       0.181000000000000E+01  0.399818920059579E-02
       0.182000000000000E+01  0.404771970327863E-02
       0.183000000000000E+01  0.409765123910734E-02
       0.184000000000000E+01  0.414798637907921E-02
       0.185000000000000E+01  0.419872772294874E-02
       0.186000000000000E+01  0.424987789956030E-02
       0.187000000000000E+01  0.430143956718531E-02
       0.188000000000000E+01  0.435341541386488E-02
       0.189000000000000E+01  0.440580815775729E-02
       0.190000000000000E+01  0.445862054749079E-02
       0.191000000000000E+01  0.451185536252169E-02
       0.192000000000000E+01  0.456551541349795E-02
       0.193000000000000E+01  0.461960354262793E-02
       0.194000000000000E+01  0.467412262405513E-02
       0.195000000000000E+01  0.472907556423823E-02
       0.196000000000000E+01  0.478446530233713E-02
       0.197000000000000E+01  0.484029481060469E-02
       0.198000000000000E+01  0.489656709478448E-02
       0.199000000000000E+01  0.495328519451464E-02
       0.200000000000000E+01  0.501045218373769E-02
       0.201000000000000E+01  0.506807117111696E-02
       0.202000000000000E+01  0.512614530045889E-02
       0.203000000000000E+01  0.518467775114231E-02
       0.204000000000000E+01  0.524367173855391E-02
       0.205000000000000E+01  0.530313051453065E-02
       0.206000000000000E+01  0.536305736780880E-02
       0.207000000000000E+01  0.542345562448005E-02
       0.208000000000000E+01  0.548432864845462E-02
       0.209000000000000E+01  0.554567984193141E-02
       0.210000000000000E+01  0.560751264587572E-02
       0.211000000000000E+01  0.566983054050412E-02
       0.212000000000000E+01  0.573263704577693E-02
       0.213000000000000E+01  0.579593572189852E-02
       0.214000000000000E+01  0.585973016982526E-02
       0.215000000000000E+01  0.592402403178143E-02
       0.216000000000000E+01  0.598882099178338E-02
       0.217000000000000E+01  0.605412477617171E-02
       0.218000000000000E+01  0.611993915415195E-02
       0.219000000000000E+01  0.618626793834373E-02
       0.220000000000000E+01  0.625311498533867E-02
       0.221000000000000E+01  0.632048419626704E-02
       0.222000000000000E+01  0.638837951737342E-02
       0.223000000000000E+01  0.645680494060154E-02
       0.224000000000000E+01  0.652576450418843E-02
       0.225000000000000E+01  0.659526229326804E-02
       0.226000000000000E+01  0.666530244048440E-02
       0.227000000000000E+01  0.673588912661492E-02
       0.228000000000000E+01  0.680702658120331E-02
       0.229000000000000E+01  0.687871908320295E-02
       0.229999999999999E+01  0.695097096163050E-02
       0.230999999999999E+01  0.702378659623015E-02
       0.231999999999999E+01  0.709717041814860E-02
       0.232999999999999E+01  0.717112691062092E-02
       0.233999999999999E+01  0.724566060966767E-02
       0.234999999999999E+01  0.732077610480335E-02
       0.235999999999999E+01  0.739647803975632E-02
       0.236999999999999E+01  0.747277111320064E-02
       0.237999999999999E+01  0.754966007949982E-02
       0.238999999999999E+01  0.762714974946290E-02
       0.239999999999999E+01  0.770524499111276E-02
       0.240999999999999E+01  0.778395073046741E-02
       0.241999999999999E+01  0.786327195233394E-02
       0.242999999999999E+01  0.794321370111586E-02
       0.243999999999999E+01  0.802378108163366E-02
       0.244999999999999E+01  0.810497925995913E-02
       0.245999999999999E+01  0.818681346426372E-02
       0.246999999999999E+01  0.826928898568081E-02
       0.247999999999999E+01  0.835241117918274E-02
       0.248999999999999E+01  0.843618546447236E-02
       0.249999999999999E+01  0.852061732688977E-02
       0.250999999999999E+01  0.860571231833423E-02
       0.251999999999999E+01  0.869147605820179E-02
       0.252999999999999E+01  0.877791423433868E-02
       0.253999999999999E+01  0.886503260401115E-02
       0.254999999999999E+01  0.895283699489155E-02
       0.255999999999999E+01  0.904133330606148E-02
       0.256999999999999E+01  0.913052750903207E-02
       0.257999999999999E+01  0.922042564878168E-02
       0.258999999999999E+01  0.931103384481153E-02
       0.259999999999999E+01  0.940235829221961E-02
       0.260999999999999E+01  0.949440526279301E-02
       0.261999999999999E+01  0.958718110611928E-02
       0.262999999999999E+01  0.968069225071709E-02
       0.263999999999999E+01  0.977494520518651E-02
       0.264999999999999E+01  0.986994655937957E-02
       0.265999999999999E+01  0.996570298559099E-02
       0.266999999999999E+01  0.100622212397701E-01
       0.267999999999999E+01  0.101595081627541E-01
       0.268999999999999E+01  0.102575706815225E-01
       0.269999999999999E+01  0.103564158104747E-01
       0.270999999999999E+01  0.104560506527293E-01
       0.271999999999999E+01  0.105564824014471E-01
       0.272999999999999E+01  0.106577183411773E-01
       0.273999999999999E+01  0.107597658492278E-01
       0.274999999999999E+01  0.108626323970605E-01
       0.275999999999999E+01  0.109663255517110E-01
       0.276999999999998E+01  0.110708529772340E-01
       0.277999999999998E+01  0.111762224361749E-01
       0.278999999999998E+01  0.112824417910684E-01
       0.279999999999998E+01  0.113895190059633E-01
       0.280999999999998E+01  0.114974621479763E-01
       0.281999999999998E+01  0.116062793888725E-01
       0.282999999999998E+01  0.117159790066768E-01
       0.283999999999998E+01  0.118265693873128E-01
       0.284999999999998E+01  0.119380590262734E-01
       0.285999999999998E+01  0.120504565303213E-01
       0.286999999999998E+01  0.121637706192210E-01
       0.287999999999998E+01  0.122780101275035E-01
       0.288999999999998E+01  0.123931840062628E-01
       0.289999999999998E+01  0.125093013249867E-01
       0.290999999999998E+01  0.126263712734211E-01
       0.291999999999998E+01  0.127444031634702E-01
       0.292999999999998E+01  0.128634064311310E-01
       0.293999999999998E+01  0.129833906384653E-01
       0.294999999999998E+01  0.131043654756086E-01
       0.295999999999998E+01  0.132263407628167E-01
       0.296999999999998E+01  0.133493264525518E-01
       0.297999999999998E+01  0.134733326316078E-01
       0.298999999999998E+01  0.135983695232760E-01
       0.299999999999998E+01  0.137244474895531E-01
       0.300999999999998E+01  0.138515770333906E-01
       0.301999999999998E+01  0.139797688009879E-01
       0.302999999999998E+01  0.141090335841300E-01
       0.303999999999998E+01  0.142393823225698E-01
       0.304999999999998E+01  0.143708261064572E-01
       0.305999999999998E+01  0.145033761788147E-01
       0.306999999999998E+01  0.146370439380630E-01
       0.307999999999998E+01  0.147718409405933E-01
       0.308999999999998E+01  0.149077789033931E-01
       0.309999999999998E+01  0.150448697067217E-01
       0.310999999999998E+01  0.151831253968388E-01
       0.311999999999998E+01  0.153225581887883E-01
       0.312999999999998E+01  0.154631804692357E-01
       0.313999999999998E+01  0.156050047993635E-01
       0.314999999999998E+01  0.157480439178232E-01
       0.315999999999998E+01  0.158923107437477E-01
       0.316999999999998E+01  0.160378183798230E-01
       0.317999999999998E+01  0.161845801154230E-01
       0.318999999999998E+01  0.163326094298063E-01
       0.319999999999998E+01  0.164819199953792E-01
       0.320999999999998E+01  0.166325256810241E-01
       0.321999999999998E+01  0.167844405554964E-01
       0.322999999999998E+01  0.169376788908900E-01
       0.323999999999997E+01  0.170922551661755E-01
       0.324999999999997E+01  0.172481840708090E-01
       0.325999999999997E+01  0.174054805084178E-01
       0.326999999999997E+01  0.175641596005606E-01
       0.327999999999997E+01  0.177242366905664E-01
       0.328999999999997E+01  0.178857273474540E-01
       0.329999999999997E+01  0.180486473699321E-01
       0.330999999999997E+01  0.182130127904847E-01
       0.331999999999997E+01  0.183788398795413E-01
       0.332999999999997E+01  0.185461451497357E-01
       0.333999999999997E+01  0.187149453602546E-01
       0.334999999999997E+01  0.188852575212788E-01
       0.335999999999997E+01  0.190570988985182E-01
       0.336999999999997E+01  0.192304870178452E-01
       0.337999999999997E+01  0.194054396700256E-01
       0.338999999999997E+01  0.195819749155528E-01
       0.339999999999997E+01  0.197601110895848E-01
       0.340999999999997E+01  0.199398668069890E-01
       0.341999999999997E+01  0.201212609674964E-01
       0.342999999999997E+01  0.203043127609679E-01
       0.343999999999997E+01  0.204890416727750E-01
       0.344999999999997E+01  0.206754674892996E-01
       0.345999999999997E+01  0.208636103035542E-01
       0.346999999999997E+01  0.210534905209254E-01
       0.347999999999997E+01  0.212451288650461E-01
       0.348999999999997E+01  0.214385463837961E-01
       0.349999999999997E+01  0.216337644554385E-01
       0.350999999999997E+01  0.218308047948915E-01
       0.351999999999997E+01  0.220296894601418E-01
       0.352999999999997E+01  0.222304408588021E-01
       0.353999999999997E+01  0.224330817548170E-01
       0.354999999999997E+01  0.226376352753199E-01
       0.355999999999997E+01  0.228441249176472E-01
       0.356999999999997E+01  0.230525745565105E-01
       0.357999999999997E+01  0.232630084513354E-01
       0.358999999999997E+01  0.234754512537669E-01
       0.359999999999997E+01  0.236899280153483E-01
       0.360999999999997E+01  0.239064641953785E-01
       0.361999999999997E+01  0.241250856689501E-01
       0.362999999999997E+01  0.243458187351763E-01
       0.363999999999997E+01  0.245686901256084E-01
       0.364999999999997E+01  0.247937270128525E-01
       0.365999999999997E+01  0.250209570193872E-01
       0.366999999999997E+01  0.252504082265909E-01
       0.367999999999997E+01  0.254821091839820E-01
       0.368999999999997E+01  0.257160889186798E-01
       0.369999999999997E+01  0.259523769450903E-01
       0.370999999999996E+01  0.261910032748248E-01
       0.371999999999996E+01  0.264319984268563E-01
       0.372999999999996E+01  0.266753934379217E-01
       0.373999999999996E+01  0.269212198731749E-01
       0.374999999999996E+01  0.271695098370998E-01
       0.375999999999996E+01  0.274202959846888E-01
       0.376999999999996E+01  0.276736115328956E-01
       0.377999999999996E+01  0.279294902723682E-01
       0.378999999999996E+01  0.281879665794732E-01
       0.379999999999996E+01  0.284490754286162E-01
       0.380999999999996E+01  0.287128524048685E-01
       0.381999999999996E+01  0.289793337169100E-01
