
  &&electric field:  1.000000e-07  0.000000e+00  0.000000e+00 
  &&dipole at groud state:    2.0944065482e-02    4.0983144922e-07    1.1041978567e-06 
  0.000000    2.1039177266e-02    4.0702736337e-07    1.1081869005e-06 
  1.000000    2.1226910942e-02    4.0195511142e-07    1.1155256132e-06 
  2.000000    2.1407337694e-02    4.0054380301e-07    1.1225469123e-06 
  3.000000    2.1576021400e-02    4.0365870868e-07    1.1286655379e-06 
  4.000000    2.1729174604e-02    4.1272614348e-07    1.1333771752e-06 
  5.000000    2.1863852696e-02    4.2753919738e-07    1.1363589536e-06 
  6.000000    2.1978083135e-02    4.4687153045e-07    1.1371852295e-06 
  7.000000    2.2070918067e-02    4.6857184666e-07    1.1356459098e-06 
  8.000000    2.2142452954e-02    4.9009026393e-07    1.1311029837e-06 
  9.000000    2.2193725987e-02    5.0827265463e-07    1.1241144264e-06 
  10.000000    2.2226612850e-02    5.2016009144e-07    1.1143701002e-06 
  11.000000    2.2243620197e-02    5.2283389218e-07    1.1029668556e-06 
  12.000000    2.2247704280e-02    5.1512717514e-07    1.0902734928e-06 
  13.000000    2.2242026239e-02    4.9526778989e-07    1.0780189612e-06 
  14.000000    2.2229737437e-02    4.6408496823e-07    1.0668681014e-06 
  15.000000    2.2213785279e-02    4.2305322845e-07    1.0585603221e-06 
  16.000000    2.2196722052e-02    3.7492083615e-07    1.0546499496e-06 
  17.000000    2.2180607610e-02    3.2363568048e-07    1.0564839457e-06 
  18.000000    2.2166903432e-02    2.7303639749e-07    1.0647417028e-06 
  19.000000    2.2156472386e-02    2.2710509606e-07    1.0805660011e-06 
  20.000000    2.2149554289e-02    1.8969996640e-07    1.1034675325e-06 
  21.000000    2.2145865320e-02    1.6400958325e-07    1.1325495350e-06 
  22.000000    2.2144669735e-02    1.5159668587e-07    1.1667283459e-06 
  23.000000    2.2144889061e-02    1.5315044388e-07    1.2044118947e-06 
  24.000000    2.2145233418e-02    1.6779308121e-07    1.2429080769e-06 
  25.000000    2.2144327940e-02    1.9336693535e-07    1.2799035929e-06 
  26.000000    2.2140812895e-02    2.2675869227e-07    1.3130369396e-06 
  27.000000    2.2133444970e-02    2.6375398088e-07    1.3393418001e-06 
  28.000000    2.2121186902e-02    3.0026598674e-07    1.3569359751e-06 
  29.000000    2.2103219827e-02    3.3253940623e-07    1.3641814647e-06 
  30.000000    2.2079011028e-02    3.5632758122e-07    1.3603488540e-06 
  31.000000    2.2048279478e-02    3.6988837460e-07    1.3450397844e-06 
  32.000000    2.2011003292e-02    3.7131980557e-07    1.3193647490e-06 
  33.000000    2.1967362215e-02    3.6119792535e-07    1.2842864479e-06 
  34.000000    2.1917704328e-02    3.4073349875e-07    1.2424060358e-06 
  35.000000    2.1862506934e-02    3.1292819935e-07    1.1967598610e-06 
  36.000000    2.1802302984e-02    2.8115670725e-07    1.1500586723e-06 
  37.000000    2.1737665006e-02    2.4943068988e-07    1.1049827506e-06 
  38.000000    2.1669155055e-02    2.2175431136e-07    1.0648049127e-06 
  39.000000    2.1597300026e-02    2.0191936878e-07    1.0319112178e-06 
  40.000000    2.1522583741e-02    1.9263069939e-07    1.0080924611e-06 
  41.000000    2.1445421104e-02    1.9602891266e-07    9.9477973237e-07 
  42.000000    2.1366181153e-02    2.1246200399e-07    9.9198667414e-07 
  43.000000    2.1285188918e-02    2.4085654227e-07    9.9928673336e-07 
  44.000000    2.1202743354e-02    2.7953905724e-07    1.0155521366e-06 
  45.000000    2.1119122461e-02    3.2522115712e-07    1.0382035569e-06 
  46.000000    2.1034611923e-02    3.7420335852e-07    1.0654451970e-06 
  47.000000    2.0949510460e-02    4.2243681841e-07    1.0943834994e-06 
  48.000000    2.0864154746e-02    4.6618010296e-07    1.1221008052e-06 
  49.000000    2.0778909626e-02    5.0227567394e-07    1.1458377074e-06 
  50.000000    2.0694190006e-02    5.2825948282e-07    1.1639339235e-06 
  51.000000    2.0610432441e-02    5.4296078256e-07    1.1740406833e-06 
  52.000000    2.0528123084e-02    5.4708556840e-07    1.1758483041e-06 
  53.000000    2.0447746453e-02    5.4169863128e-07    1.1689179544e-06 
  54.000000    2.0369809655e-02    5.2898196268e-07    1.1540536278e-06 
  55.000000    2.0294809782e-02    5.1187755057e-07    1.1325154290e-06 
  56.000000    2.0223219947e-02    4.9384852341e-07    1.1054456834e-06 
  57.000000    2.0155477871e-02    4.7810846704e-07    1.0755137581e-06 
  58.000000    2.0091979134e-02    4.6759550409e-07    1.0449088066e-06 
  59.000000    2.0033062038e-02    4.6442330026e-07    1.0161392154e-06 
  60.000000    1.9978999927e-02    4.6977135648e-07    9.9129909614e-07 
  61.000000    1.9930017249e-02    4.8390308516e-07    9.7203827210e-07 
  62.000000    1.9886270233e-02    5.0588818690e-07    9.5986923299e-07 
  63.000000    1.9847867147e-02    5.3359980834e-07    9.5568646685e-07 
  64.000000    1.9814872717e-02    5.6481969191e-07    9.5915800813e-07 
  65.000000    1.9787304171e-02    5.9653706908e-07    9.7074406114e-07 
  66.000000    1.9765171989e-02    6.2650116783e-07    9.8912222057e-07 
  67.000000    1.9748452420e-02    6.5199885180e-07    1.0134239190e-06 
  68.000000    1.9737112404e-02    6.7130287684e-07    1.0419279377e-06 
  69.000000    1.9731127259e-02    6.8346680004e-07    1.0731936371e-06 
  70.000000    1.9730451585e-02    6.8806759268e-07    1.1049304547e-06 
  71.000000    1.9735069315e-02    6.8609580817e-07    1.1355781524e-06 
  72.000000    1.9744928529e-02    6.7866751019e-07    1.1630667203e-06 
  73.000000    1.9760000820e-02    6.6797571785e-07    1.1859778013e-06 
  74.000000    1.9780228448e-02    6.5596720455e-07    1.2024751257e-06 
  75.000000    1.9805545521e-02    6.4458078564e-07    1.2117747090e-06 
  76.000000    1.9835857044e-02    6.3586259680e-07    1.2128924780e-06 
  77.000000    1.9871053820e-02    6.3064391620e-07    1.2056992844e-06 
  78.000000    1.9910971702e-02    6.2954149493e-07    1.1902633403e-06 
  79.000000    1.9955432111e-02    6.3195688549e-07    1.1670521260e-06 
  80.000000    2.0004218047e-02    6.3736587785e-07    1.1374567137e-06 
  81.000000    2.0057074095e-02    6.4317379733e-07    1.1032392493e-06 
  82.000000    2.0113725749e-02    6.4781915521e-07    1.0661382319e-06 
  83.000000    2.0173871492e-02    6.4902071140e-07    1.0291136121e-06 
  84.000000    2.0237196072e-02    6.4503041708e-07    9.9487295557e-07 
  85.000000    2.0303376786e-02    6.3412739459e-07    9.6601241495e-07 
  86.000000    2.0372085341e-02    6.1503198490e-07    9.4503219117e-07 
  87.000000    2.0442985066e-02    5.8752738719e-07    9.3452616312e-07 
  88.000000    2.0515761406e-02    5.5259312726e-07    9.3549932245e-07 
  89.000000    2.0590082112e-02    5.1139858792e-07    9.4903487735e-07 
  90.000000    2.0665637751e-02    4.6587576330e-07    9.7466216431e-07 
  91.000000    2.0742109346e-02    4.1893333114e-07    1.0111101645e-06 
  92.000000    2.0819185370e-02    3.7328681524e-07    1.0566485642e-06 
  93.000000    2.0896531710e-02    3.3190730742e-07    1.1084160931e-06 
  94.000000    2.0973834510e-02    2.9764027554e-07    1.1627670418e-06 
  95.000000    2.1050743594e-02    2.7275434045e-07    1.2158401503e-06 
  96.000000    2.1126909715e-02    2.5833532513e-07    1.2636536511e-06 
  97.000000    2.1201968960e-02    2.5529818126e-07    1.3031584629e-06 
  98.000000    2.1275543210e-02    2.6292941024e-07    1.3310735838e-06 
  99.000000    2.1347250857e-02    2.8017240661e-07    1.3455454635e-06 
  100.000000    2.1416697486e-02    3.0506482185e-07    1.3459133541e-06 
  101.000000    2.1483501953e-02    3.3471503125e-07    1.3320244605e-06 
  102.000000    2.1547282648e-02    3.6611579057e-07    1.3060856716e-06 
  103.000000    2.1607681711e-02    3.9594357881e-07    1.2700710457e-06 
  104.000000    2.1664357579e-02    4.2139055845e-07    1.2272747725e-06 
  105.000000    2.1717003382e-02    4.4011932809e-07    1.1821410979e-06 
  106.000000    2.1765351364e-02    4.5021642459e-07    1.1381088214e-06 
  107.000000    2.1809175446e-02    4.5046994623e-07    1.0997827147e-06 
  108.000000    2.1848292158e-02    4.4113102726e-07    1.0700913506e-06 
  109.000000    2.1882562500e-02    4.2293976898e-07    1.0516313367e-06 
  110.000000    2.1911902421e-02    3.9778280447e-07    1.0465636322e-06 
  111.000000    2.1936275831e-02    3.6806813464e-07    1.0549878269e-06 
  112.000000    2.1955681334e-02    3.3633347707e-07    1.0759907880e-06 
  113.000000    2.1970167126e-02    3.0539292206e-07    1.1080854918e-06 
  114.000000    2.1979811204e-02    2.7848472550e-07    1.1487649161e-06 
  115.000000    2.1984721835e-02    2.5851028918e-07    1.1944324640e-06 
  116.000000    2.1985028706e-02    2.4646550978e-07    1.2419576549e-06 
  117.000000    2.1980883854e-02    2.4422701594e-07    1.2872227515e-06 
  118.000000    2.1972436526e-02    2.5150922633e-07    1.3269894978e-06 
  119.000000    2.1959841785e-02    2.6757249438e-07    1.3575921756e-06 
  120.000000    2.1943256094e-02    2.9094719034e-07    1.3771313050e-06 
  121.000000    2.1922829163e-02    3.1911969822e-07    1.3837010400e-06 
  122.000000    2.1898695336e-02    3.4925637360e-07    1.3765901556e-06 
  123.000000    2.1870988489e-02    3.7858655455e-07    1.3562979646e-06 
  124.000000    2.1839822943e-02    4.0391893785e-07    1.3235411487e-06 
  125.000000    2.1805310224e-02    4.2263122291e-07    1.2803410598e-06 
  126.000000    2.1767564652e-02    4.3303436437e-07    1.2292429190e-06 
  127.000000    2.1726687740e-02    4.3366828217e-07    1.1730529721e-06 
  128.000000    2.1682798465e-02    4.2471180572e-07    1.1148112051e-06 
  129.000000    2.1636021159e-02    4.0654112476e-07    1.0580637380e-06 
  130.000000    2.1586489466e-02    3.8083402965e-07    1.0054581097e-06 
  131.000000    2.1534368697e-02    3.4993235554e-07    9.5967369163e-07 
  132.000000    2.1479831145e-02    3.1691781155e-07    9.2324933831e-07 
  133.000000    2.1423079840e-02    2.8529388496e-07    8.9781077151e-07 
  134.000000    2.1364339928e-02    2.5790422464e-07    8.8449395008e-07 
  135.000000    2.1303857512e-02    2.3751414924e-07    8.8292780021e-07 
  136.000000    2.1241896621e-02    2.2674311717e-07    8.9267803816e-07 
  137.000000    2.1178735488e-02    2.2655917187e-07    9.1252139356e-07 
  138.000000    2.1114681683e-02    2.3751312606e-07    9.4034147224e-07 
  139.000000    2.1050032296e-02    2.5943570003e-07    9.7376494779e-07 
  140.000000    2.0985102815e-02    2.9057202378e-07    1.0098150440e-06 
  141.000000    2.0920220598e-02    3.2882707623e-07    1.0457805573e-06 
  142.000000    2.0855698337e-02    3.7203307679e-07    1.0786192277e-06 
  143.000000    2.0791863858e-02    4.1655841310e-07    1.1058740554e-06 
  144.000000    2.0729030318e-02    4.5979681440e-07    1.1256614769e-06 
  145.000000    2.0667526706e-02    4.9929787460e-07    1.1368887343e-06 
  146.000000    2.0607658963e-02    5.3289779212e-07    1.1391074466e-06 
  147.000000    2.0549734657e-02    5.5923687237e-07    1.1329951874e-06 
  148.000000    2.0494052510e-02    5.7762753736e-07    1.1194355309e-06 
  149.000000    2.0440894713e-02    5.8826782956e-07    1.1006376397e-06 
  150.000000    2.0390537635e-02    5.9226301241e-07    1.0790557852e-06 
  151.000000    2.0343213643e-02    5.9096368554e-07    1.0574689284e-06 
  152.000000    2.0299160921e-02    5.8649772550e-07    1.0391885397e-06 
  153.000000    2.0258563639e-02    5.8077620801e-07    1.0266711641e-06 
  154.000000    2.0221591297e-02    5.7535129949e-07    1.0218062769e-06 
  155.000000    2.0188367295e-02    5.7193751113e-07    1.0263687571e-06 
  156.000000    2.0158987560e-02    5.7154915689e-07    1.0404354569e-06 
  157.000000    2.0133512163e-02    5.7430208367e-07    1.0637408039e-06 
  158.000000    2.0111957167e-02    5.8006828008e-07    1.0948668958e-06 
  159.000000    2.0094323273e-02    5.8817199156e-07    1.1314540487e-06 
  160.000000    2.0080579746e-02    5.9752887305e-07    1.1706923786e-06 
  161.000000    2.0070676061e-02    6.0658016432e-07    1.2099243420e-06 
  162.000000    2.0064549821e-02    6.1439874921e-07    1.2455406093e-06 
  163.000000    2.0062131410e-02    6.1955785791e-07    1.2747940517e-06 
  164.000000    2.0063352373e-02    6.2156534009e-07    1.2960198390e-06 
  165.000000    2.0068135181e-02    6.2026555847e-07    1.3074981169e-06 
  166.000000    2.0076428608e-02    6.1587929290e-07    1.3089346638e-06 
  167.000000    2.0088168860e-02    6.0923270562e-07    1.3011020954e-06 
  168.000000    2.0103310070e-02    6.0122983436e-07    1.2853346405e-06 
  169.000000    2.0121814518e-02    5.9332689384e-07    1.2640829326e-06 
  170.000000    2.0143633311e-02    5.8661482294e-07    1.2399817777e-06 
  171.000000    2.0168732920e-02    5.8259576585e-07    1.2158324196e-06 
  172.000000    2.0197052111e-02    5.8117774993e-07    1.1947012197e-06 
  173.000000    2.0228528719e-02    5.8282006998e-07    1.1790892884e-06 
  174.000000    2.0263077759e-02    5.8757638621e-07    1.1702949294e-06 
  175.000000    2.0300580490e-02    5.9401936037e-07    1.1696919344e-06 
  176.000000    2.0340903265e-02    6.0065219154e-07    1.1772139104e-06 
  177.000000    2.0383868667e-02    6.0670783464e-07    1.1920668683e-06 
  178.000000    2.0429276464e-02    6.1008331054e-07    1.2124995763e-06 
  179.000000    2.0476884742e-02    6.0970268700e-07    1.2364911370e-06 
  180.000000    2.0526423886e-02    6.0440988259e-07    1.2617132441e-06 
  181.000000    2.0577599363e-02    5.9400048835e-07    1.2855574667e-06 
  182.000000    2.0630100112e-02    5.7906078732e-07    1.3056791275e-06 
  183.000000    2.0683595047e-02    5.6047333041e-07    1.3205343592e-06 
  184.000000    2.0737741676e-02    5.3959565216e-07    1.3286434140e-06 
  185.000000    2.0792197271e-02    5.1866431372e-07    1.3291877465e-06 
  186.000000    2.0846632144e-02    4.9907118305e-07    1.3222942314e-06 
  187.000000    2.0900730810e-02    4.8336307268e-07    1.3090547171e-06 
  188.000000    2.0954188493e-02    4.7317320773e-07    1.2906460896e-06 
  189.000000    2.1006731617e-02    4.6930796893e-07    1.2688982522e-06 
  190.000000    2.1058124791e-02    4.7207135490e-07    1.2454455671e-06 
  191.000000    2.1108159631e-02    4.8095041061e-07    1.2217614156e-06 
  192.000000    2.1156657555e-02    4.9425972870e-07    1.1992455100e-06 
  193.000000    2.1203473744e-02    5.0966429521e-07    1.1788050713e-06 
  194.000000    2.1248507847e-02    5.2477350332e-07    1.1608771118e-06 
  195.000000    2.1291668362e-02    5.3670721067e-07    1.1454393487e-06 
  196.000000    2.1332903600e-02    5.4283277118e-07    1.1320947877e-06 
  197.000000    2.1372159080e-02    5.4102537783e-07    1.1200958241e-06 
  198.000000    2.1409411051e-02    5.2970648889e-07    1.1085893519e-06 
  199.000000    2.1444619934e-02    5.0838133925e-07    1.0967072583e-06 
  200.000000    2.1477759418e-02    4.7788041124e-07    1.0839156701e-06 
  201.000000    2.1508776884e-02    4.3976223774e-07    1.0695715744e-06 
  202.000000    2.1537627627e-02    3.9606965752e-07    1.0542411317e-06 
  203.000000    2.1564225501e-02    3.5056638703e-07    1.0381612654e-06 
  204.000000    2.1588491111e-02    3.0632560888e-07    1.0223274174e-06 
  205.000000    2.1610315492e-02    2.6705271816e-07    1.0084753583e-06 
  206.000000    2.1629575010e-02    2.3577201214e-07    9.9726765512e-07 
  207.000000    2.1646136952e-02    2.1501961678e-07    9.9064698844e-07 
  208.000000    2.1659867440e-02    2.0605472750e-07    9.8958515338e-07 
  209.000000    2.1670621189e-02    2.0942974865e-07    9.9467604997e-07 
  210.000000    2.1678262225e-02    2.2469948258e-07    1.0062189020e-06 
  211.000000    2.1682670641e-02    2.5034780160e-07    1.0239226711e-06 
  212.000000    2.1683739799e-02    2.8331789403e-07    1.0462184790e-06 
  213.000000    2.1681387045e-02    3.2110728521e-07    1.0716256682e-06 
  214.000000    2.1675552775e-02    3.6047715080e-07    1.0979187053e-06 
  215.000000    2.1666211610e-02    3.9806668051e-07    1.1228484098e-06 
  216.000000    2.1653371931e-02    4.3112078751e-07    1.1440419101e-06 
  217.000000    2.1637065870e-02    4.5763528655e-07    1.1595947242e-06 
  218.000000    2.1617377478e-02    4.7576367601e-07    1.1676664897e-06 
  219.000000    2.1594405941e-02    4.8511510053e-07    1.1682558423e-06 
  220.000000    2.1568293751e-02    4.8592989410e-07    1.1615142128e-06 
  221.000000    2.1539207150e-02    4.7929353864e-07    1.1483756523e-06 
  222.000000    2.1507344975e-02    4.6627071137e-07    1.1311584629e-06 
  223.000000    2.1472925621e-02    4.4895984397e-07    1.1122382446e-06 
  224.000000    2.1436190068e-02    4.2952576118e-07    1.0950951790e-06 
  225.000000    2.1397390238e-02    4.0952529057e-07    1.0821908134e-06 
  226.000000    2.1356802502e-02    3.9111234296e-07    1.0763959679e-06 
  227.000000    2.1314707653e-02    3.7585261348e-07    1.0798747851e-06 
  228.000000    2.1271378801e-02    3.6543219162e-07    1.0932730063e-06 
  229.000000    2.1227111642e-02    3.6015825922e-07    1.1167602523e-06 
  230.000000    2.1182178355e-02    3.6081605126e-07    1.1488904264e-06 
  231.000000    2.1136853912e-02    3.6767932565e-07    1.1875043882e-06 
  232.000000    2.1091393030e-02    3.8097898036e-07    1.2292024465e-06 
  233.000000    2.1046047865e-02    4.0054334827e-07    1.2700187497e-06 
  234.000000    2.1001030293e-02    4.2577193549e-07    1.3063780742e-06 
  235.000000    2.0956553820e-02    4.5639268942e-07    1.3343150229e-06 
  236.000000    2.0912795861e-02    4.9158319948e-07    1.3514121591e-06 
  237.000000    2.0869915442e-02    5.3045386617e-07    1.3554512250e-06 
  238.000000    2.0828048999e-02    5.7140306930e-07    1.3461711958e-06 
  239.000000    2.0787317840e-02    6.1324539624e-07    1.3246543702e-06 
  240.000000    2.0747816724e-02    6.5423541296e-07    1.2928757158e-06 
  241.000000    2.0709633430e-02    6.9183415130e-07    1.2538838590e-06 
  242.000000    2.0672837806e-02    7.2445340615e-07    1.2124031699e-06 
  243.000000    2.0637500866e-02    7.4993051280e-07    1.1724145068e-06 
  244.000000    2.0603687570e-02    7.6659347892e-07    1.1381915854e-06 
  245.000000    2.0571461015e-02    7.7271119503e-07    1.1127266433e-06 
  246.000000    2.0540897337e-02    7.6723410425e-07    1.0986517580e-06 
  247.000000    2.0512073369e-02    7.5055442617e-07    1.0966613289e-06 
  248.000000    2.0485077587e-02    7.2313702626e-07    1.1061946523e-06 
  249.000000    2.0460011971e-02    6.8706851275e-07    1.1250848573e-06 
  250.000000    2.0436982227e-02    6.4430634561e-07    1.1501741781e-06 
  251.000000    2.0416109425e-02    5.9894086357e-07    1.1773667055e-06 
  252.000000    2.0397512077e-02    5.5434504143e-07    1.2022500258e-06 
  253.000000    2.0381317076e-02    5.1459023220e-07    1.2204121802e-06 
  254.000000    2.0367645494e-02    4.8335284086e-07    1.2283898130e-06 
  255.000000    2.0356606760e-02    4.6393296893e-07    1.2236845421e-06 
  256.000000    2.0348300527e-02    4.5848145769e-07    1.2050703688e-06 
  257.000000    2.0342799204e-02    4.6820770772e-07    1.1732375995e-06 
  258.000000    2.0340157741e-02    4.9255817780e-07    1.1301043585e-06 
  259.000000    2.0340391503e-02    5.2984234467e-07    1.0786769806e-06 
  260.000000    2.0343493505e-02    5.7646236096e-07    1.0238235362e-06 
  261.000000    2.0349418347e-02    6.2842747761e-07    9.7034797619e-07 
  262.000000    2.0358082906e-02    6.8028618339e-07    9.2279049824e-07 
  263.000000    2.0369382178e-02    7.2703762166e-07    8.8575814772e-07 
  264.000000    2.0383178092e-02    7.6257294390e-07    8.6253010778e-07 
  265.000000    2.0399311625e-02    7.8286217908e-07    8.5521731563e-07 
  266.000000    2.0417610251e-02    7.8464251496e-07    8.6401576738e-07 
  267.000000    2.0437896320e-02    7.6581074504e-07    8.8812783616e-07 
  268.000000    2.0459990784e-02    7.2668496509e-07    9.2488551928e-07 
