
  &&electric field in cartesian unit:  1.000000e-03  0.000000e+00  0.000000e+00 
  &&electric field in crystal unit:  1.000000e-03  0.000000e+00  0.000000e+00 
  0.000000    1.8325699952e-02    0.0000000000e+00    0.0000000000e+00 
  0.200000    1.8327355500e-02    0.0000000000e+00    0.0000000000e+00 
  0.400000    1.8328939301e-02    0.0000000000e+00    0.0000000000e+00 
  0.600000    1.8330443698e-02    0.0000000000e+00    0.0000000000e+00 
  0.800000    1.8331862308e-02    0.0000000000e+00    0.0000000000e+00 
  1.000000    1.8333189484e-02    0.0000000000e+00    0.0000000000e+00 
  1.200000    1.8334420379e-02    0.0000000000e+00    0.0000000000e+00 
  1.400000    1.8335551023e-02    0.0000000000e+00    0.0000000000e+00 
  1.600000    1.8336578368e-02    0.0000000000e+00    0.0000000000e+00 
  1.800000    1.8337500335e-02    0.0000000000e+00    0.0000000000e+00 
  2.000000    1.8338315841e-02    0.0000000000e+00    0.0000000000e+00 
  2.200000    1.8339024821e-02    0.0000000000e+00    0.0000000000e+00 
  2.400000    1.8339628225e-02    0.0000000000e+00    0.0000000000e+00 
  2.600000    1.8340128017e-02    0.0000000000e+00    0.0000000000e+00 
  2.800000    1.8340527146e-02    0.0000000000e+00    0.0000000000e+00 
  3.000000    1.8340829517e-02    0.0000000000e+00    0.0000000000e+00 
  3.200000    1.8341039940e-02    0.0000000000e+00    0.0000000000e+00 
  3.400000    1.8341164071e-02    0.0000000000e+00    0.0000000000e+00 
  3.600000    1.8341208347e-02    0.0000000000e+00    0.0000000000e+00 
  3.800000    1.8341179900e-02    0.0000000000e+00    0.0000000000e+00 
  4.000000    1.8341086471e-02    0.0000000000e+00    0.0000000000e+00 
  4.200000    1.8340936314e-02    0.0000000000e+00    0.0000000000e+00 
  4.400000    1.8340738089e-02    0.0000000000e+00    0.0000000000e+00 
  4.600000    1.8340500756e-02    0.0000000000e+00    0.0000000000e+00 
  4.800000    1.8340233460e-02    0.0000000000e+00    0.0000000000e+00 
  5.000000    1.8339945417e-02    0.0000000000e+00    0.0000000000e+00 
  5.200000    1.8339645795e-02    0.0000000000e+00    0.0000000000e+00 
  5.400000    1.8339343599e-02    0.0000000000e+00    0.0000000000e+00 
  5.600000    1.8339047558e-02    0.0000000000e+00    0.0000000000e+00 
  5.800000    1.8338766013e-02    0.0000000000e+00    0.0000000000e+00 
  6.000000    1.8338506812e-02    0.0000000000e+00    0.0000000000e+00 
  6.200000    1.8338277208e-02    0.0000000000e+00    0.0000000000e+00 
  6.400000    1.8338083770e-02    0.0000000000e+00    0.0000000000e+00 
  6.600000    1.8337932300e-02    0.0000000000e+00    0.0000000000e+00 
  6.800000    1.8337827757e-02    0.0000000000e+00    0.0000000000e+00 
  7.000000    1.8337774194e-02    0.0000000000e+00    0.0000000000e+00 
  7.200000    1.8337774713e-02    0.0000000000e+00    0.0000000000e+00 
  7.400000    1.8337831420e-02    0.0000000000e+00    0.0000000000e+00 
  7.600000    1.8337945399e-02    0.0000000000e+00    0.0000000000e+00 
  7.800000    1.8338116706e-02    0.0000000000e+00    0.0000000000e+00 
  8.000000    1.8338344362e-02    0.0000000000e+00    0.0000000000e+00 
  8.200000    1.8338626371e-02    0.0000000000e+00    0.0000000000e+00 
  8.400000    1.8338959745e-02    0.0000000000e+00    0.0000000000e+00 
  8.600000    1.8339340545e-02    0.0000000000e+00    0.0000000000e+00 
  8.800000    1.8339763933e-02    0.0000000000e+00    0.0000000000e+00 
  9.000000    1.8340224235e-02    0.0000000000e+00    0.0000000000e+00 
  9.200000    1.8340715015e-02    0.0000000000e+00    0.0000000000e+00 
  9.400000    1.8341229161e-02    0.0000000000e+00    0.0000000000e+00 
  9.600000    1.8341758977e-02    0.0000000000e+00    0.0000000000e+00 
  9.800000    1.8342296281e-02    0.0000000000e+00    0.0000000000e+00 
  10.000000    1.8342832519e-02    0.0000000000e+00    0.0000000000e+00 
  10.200000    1.8343358868e-02    0.0000000000e+00    0.0000000000e+00 
  10.400000    1.8343866357e-02    0.0000000000e+00    0.0000000000e+00 
  10.600000    1.8344345982e-02    0.0000000000e+00    0.0000000000e+00 
  10.800000    1.8344788827e-02    0.0000000000e+00    0.0000000000e+00 
  11.000000    1.8345186173e-02    0.0000000000e+00    0.0000000000e+00 
  11.200000    1.8345529623e-02    0.0000000000e+00    0.0000000000e+00 
  11.400000    1.8345811202e-02    0.0000000000e+00    0.0000000000e+00 
  11.600000    1.8346023467e-02    0.0000000000e+00    0.0000000000e+00 
  11.800000    1.8346159606e-02    0.0000000000e+00    0.0000000000e+00 
  12.000000    1.8346213525e-02    0.0000000000e+00    0.0000000000e+00 
  12.200000    1.8346179928e-02    0.0000000000e+00    0.0000000000e+00 
  12.400000    1.8346054393e-02    0.0000000000e+00    0.0000000000e+00 
  12.600000    1.8345833427e-02    0.0000000000e+00    0.0000000000e+00 
  12.800000    1.8345514513e-02    0.0000000000e+00    0.0000000000e+00 
  13.000000    1.8345096149e-02    0.0000000000e+00    0.0000000000e+00 
  13.200000    1.8344577867e-02    0.0000000000e+00    0.0000000000e+00 
  13.400000    1.8343960245e-02    0.0000000000e+00    0.0000000000e+00 
  13.600000    1.8343244897e-02    0.0000000000e+00    0.0000000000e+00 
  13.800000    1.8342434463e-02    0.0000000000e+00    0.0000000000e+00 
  14.000000    1.8341532571e-02    0.0000000000e+00    0.0000000000e+00 
  14.200000    1.8340543798e-02    0.0000000000e+00    0.0000000000e+00 
  14.400000    1.8339473612e-02    0.0000000000e+00    0.0000000000e+00 
  14.600000    1.8338328306e-02    0.0000000000e+00    0.0000000000e+00 
  14.800000    1.8337114918e-02    0.0000000000e+00    0.0000000000e+00 
  15.000000    1.8335841147e-02    0.0000000000e+00    0.0000000000e+00 
  15.200000    1.8334515254e-02    0.0000000000e+00    0.0000000000e+00 
  15.400000    1.8333145958e-02    0.0000000000e+00    0.0000000000e+00 
  15.600000    1.8331742329e-02    0.0000000000e+00    0.0000000000e+00 
  15.800000    1.8330313672e-02    0.0000000000e+00    0.0000000000e+00 
  16.000000    1.8328869410e-02    0.0000000000e+00    0.0000000000e+00 
  16.200000    1.8327418964e-02    0.0000000000e+00    0.0000000000e+00 
  16.400000    1.8325971634e-02    0.0000000000e+00    0.0000000000e+00 
  16.600000    1.8324536484e-02    0.0000000000e+00    0.0000000000e+00 
  16.800000    1.8323122220e-02    0.0000000000e+00    0.0000000000e+00 
  17.000000    1.8321737083e-02    0.0000000000e+00    0.0000000000e+00 
  17.200000    1.8320388744e-02    0.0000000000e+00    0.0000000000e+00 
  17.400000    1.8319084204e-02    0.0000000000e+00    0.0000000000e+00 
  17.600000    1.8317829703e-02    0.0000000000e+00    0.0000000000e+00 
  17.800000    1.8316630639e-02    0.0000000000e+00    0.0000000000e+00 
  18.000000    1.8315491501e-02    0.0000000000e+00    0.0000000000e+00 
  18.200000    1.8314415803e-02    0.0000000000e+00    0.0000000000e+00 
  18.400000    1.8313406046e-02    0.0000000000e+00    0.0000000000e+00 
  18.600000    1.8312463675e-02    0.0000000000e+00    0.0000000000e+00 
  18.800000    1.8311589062e-02    0.0000000000e+00    0.0000000000e+00 
  19.000000    1.8310781498e-02    0.0000000000e+00    0.0000000000e+00 
  19.200000    1.8310039201e-02    0.0000000000e+00    0.0000000000e+00 
  19.400000    1.8309359331e-02    0.0000000000e+00    0.0000000000e+00 
  19.600000    1.8308738025e-02    0.0000000000e+00    0.0000000000e+00 
  19.800000    1.8308170445e-02    0.0000000000e+00    0.0000000000e+00 
  20.000000    1.8307650835e-02    0.0000000000e+00    0.0000000000e+00 
  20.200000    1.8307172589e-02    0.0000000000e+00    0.0000000000e+00 
  20.400000    1.8306728335e-02    0.0000000000e+00    0.0000000000e+00 
  20.600000    1.8306310027e-02    0.0000000000e+00    0.0000000000e+00 
  20.800000    1.8305909040e-02    0.0000000000e+00    0.0000000000e+00 
  21.000000    1.8305516283e-02    0.0000000000e+00    0.0000000000e+00 
  21.200000    1.8305122309e-02    0.0000000000e+00    0.0000000000e+00 
  21.400000    1.8304717437e-02    0.0000000000e+00    0.0000000000e+00 
  21.600000    1.8304291871e-02    0.0000000000e+00    0.0000000000e+00 
  21.800000    1.8303835827e-02    0.0000000000e+00    0.0000000000e+00 
  22.000000    1.8303339656e-02    0.0000000000e+00    0.0000000000e+00 
  22.200000    1.8302793969e-02    0.0000000000e+00    0.0000000000e+00 
  22.400000    1.8302189757e-02    0.0000000000e+00    0.0000000000e+00 
  22.600000    1.8301518506e-02    0.0000000000e+00    0.0000000000e+00 
  22.800000    1.8300772313e-02    0.0000000000e+00    0.0000000000e+00 
  23.000000    1.8299943985e-02    0.0000000000e+00    0.0000000000e+00 
  23.200000    1.8299027138e-02    0.0000000000e+00    0.0000000000e+00 
  23.400000    1.8298016282e-02    0.0000000000e+00    0.0000000000e+00 
  23.600000    1.8296906901e-02    0.0000000000e+00    0.0000000000e+00 
  23.800000    1.8295695509e-02    0.0000000000e+00    0.0000000000e+00 
  24.000000    1.8294379711e-02    0.0000000000e+00    0.0000000000e+00 
  24.200000    1.8292958238e-02    0.0000000000e+00    0.0000000000e+00 
  24.400000    1.8291430972e-02    0.0000000000e+00    0.0000000000e+00 
  24.600000    1.8289798959e-02    0.0000000000e+00    0.0000000000e+00 
  24.800000    1.8288064407e-02    0.0000000000e+00    0.0000000000e+00 
  25.000000    1.8286230669e-02    0.0000000000e+00    0.0000000000e+00 
  25.200000    1.8284302215e-02    0.0000000000e+00    0.0000000000e+00 
  25.400000    1.8282284587e-02    0.0000000000e+00    0.0000000000e+00 
  25.600000    1.8280184342e-02    0.0000000000e+00    0.0000000000e+00 
  25.800000    1.8278008986e-02    0.0000000000e+00    0.0000000000e+00 
  26.000000    1.8275766892e-02    0.0000000000e+00    0.0000000000e+00 
  26.200000    1.8273467211e-02    0.0000000000e+00    0.0000000000e+00 
  26.400000    1.8271119774e-02    0.0000000000e+00    0.0000000000e+00 
  26.600000    1.8268734980e-02    0.0000000000e+00    0.0000000000e+00 
  26.800000    1.8266323686e-02    0.0000000000e+00    0.0000000000e+00 
  27.000000    1.8263897087e-02    0.0000000000e+00    0.0000000000e+00 
  27.200000    1.8261466590e-02    0.0000000000e+00    0.0000000000e+00 
  27.400000    1.8259043690e-02    0.0000000000e+00    0.0000000000e+00 
  27.600000    1.8256639846e-02    0.0000000000e+00    0.0000000000e+00 
  27.800000    1.8254266352e-02    0.0000000000e+00    0.0000000000e+00 
  28.000000    1.8251934215e-02    0.0000000000e+00    0.0000000000e+00 
  28.200000    1.8249654037e-02    0.0000000000e+00    0.0000000000e+00 
  28.400000    1.8247435899e-02    0.0000000000e+00    0.0000000000e+00 
  28.600000    1.8245289258e-02    0.0000000000e+00    0.0000000000e+00 
  28.800000    1.8243222843e-02    0.0000000000e+00    0.0000000000e+00 
  29.000000    1.8241244570e-02    0.0000000000e+00    0.0000000000e+00 
  29.200000    1.8239361460e-02    0.0000000000e+00    0.0000000000e+00 
  29.400000    1.8237579574e-02    0.0000000000e+00    0.0000000000e+00 
  29.600000    1.8235903953e-02    0.0000000000e+00    0.0000000000e+00 
  29.800000    1.8234338583e-02    0.0000000000e+00    0.0000000000e+00 
  30.000000    1.8232886357e-02    0.0000000000e+00    0.0000000000e+00 
  30.200000    1.8231549064e-02    0.0000000000e+00    0.0000000000e+00 
  30.400000    1.8230327386e-02    0.0000000000e+00    0.0000000000e+00 
  30.600000    1.8229220913e-02    0.0000000000e+00    0.0000000000e+00 
  30.800000    1.8228228160e-02    0.0000000000e+00    0.0000000000e+00 
  31.000000    1.8227346615e-02    0.0000000000e+00    0.0000000000e+00 
  31.200000    1.8226572782e-02    0.0000000000e+00    0.0000000000e+00 
  31.400000    1.8225902248e-02    0.0000000000e+00    0.0000000000e+00 
  31.600000    1.8225329757e-02    0.0000000000e+00    0.0000000000e+00 
  31.800000    1.8224849289e-02    0.0000000000e+00    0.0000000000e+00 
  32.000000    1.8224454156e-02    0.0000000000e+00    0.0000000000e+00 
  32.200000    1.8224137101e-02    0.0000000000e+00    0.0000000000e+00 
  32.400000    1.8223890402e-02    0.0000000000e+00    0.0000000000e+00 
  32.600000    1.8223705986e-02    0.0000000000e+00    0.0000000000e+00 
  32.800000    1.8223575540e-02    0.0000000000e+00    0.0000000000e+00 
  33.000000    1.8223490624e-02    0.0000000000e+00    0.0000000000e+00 
  33.200000    1.8223442793e-02    0.0000000000e+00    0.0000000000e+00 
  33.400000    1.8223423707e-02    0.0000000000e+00    0.0000000000e+00 
  33.600000    1.8223425249e-02    0.0000000000e+00    0.0000000000e+00 
  33.800000    1.8223439618e-02    0.0000000000e+00    0.0000000000e+00 
  34.000000    1.8223459432e-02    0.0000000000e+00    0.0000000000e+00 
  34.200000    1.8223477846e-02    0.0000000000e+00    0.0000000000e+00 
  34.400000    1.8223488615e-02    0.0000000000e+00    0.0000000000e+00 
  34.600000    1.8223486177e-02    0.0000000000e+00    0.0000000000e+00 
  34.800000    1.8223465722e-02    0.0000000000e+00    0.0000000000e+00 
  35.000000    1.8223423245e-02    0.0000000000e+00    0.0000000000e+00 
  35.200000    1.8223355592e-02    0.0000000000e+00    0.0000000000e+00 
  35.400000    1.8223260491e-02    0.0000000000e+00    0.0000000000e+00 
  35.600000    1.8223136573e-02    0.0000000000e+00    0.0000000000e+00 
  35.800000    1.8222983375e-02    0.0000000000e+00    0.0000000000e+00 
  36.000000    1.8222801338e-02    0.0000000000e+00    0.0000000000e+00 
  36.200000    1.8222591787e-02    0.0000000000e+00    0.0000000000e+00 
  36.400000    1.8222356903e-02    0.0000000000e+00    0.0000000000e+00 
  36.600000    1.8222099678e-02    0.0000000000e+00    0.0000000000e+00 
  36.800000    1.8221823864e-02    0.0000000000e+00    0.0000000000e+00 
  37.000000    1.8221533937e-02    0.0000000000e+00    0.0000000000e+00 
  37.200000    1.8221234951e-02    0.0000000000e+00    0.0000000000e+00 
  37.400000    1.8220932502e-02    0.0000000000e+00    0.0000000000e+00 
  37.600000    1.8220632702e-02    0.0000000000e+00    0.0000000000e+00 
  37.800000    1.8220342008e-02    0.0000000000e+00    0.0000000000e+00 
  38.000000    1.8220067152e-02    0.0000000000e+00    0.0000000000e+00 
  38.200000    1.8219815043e-02    0.0000000000e+00    0.0000000000e+00 
  38.400000    1.8219592668e-02    0.0000000000e+00    0.0000000000e+00 
  38.600000    1.8219406995e-02    0.0000000000e+00    0.0000000000e+00 
  38.800000    1.8219264872e-02    0.0000000000e+00    0.0000000000e+00 
  39.000000    1.8219172935e-02    0.0000000000e+00    0.0000000000e+00 
  39.200000    1.8219137519e-02    0.0000000000e+00    0.0000000000e+00 
  39.400000    1.8219164570e-02    0.0000000000e+00    0.0000000000e+00 
  39.600000    1.8219259569e-02    0.0000000000e+00    0.0000000000e+00 
  39.800000    1.8219427464e-02    0.0000000000e+00    0.0000000000e+00 
  40.000000    1.8219672603e-02    0.0000000000e+00    0.0000000000e+00 
  40.200000    1.8219998706e-02    0.0000000000e+00    0.0000000000e+00 
  40.400000    1.8220408760e-02    0.0000000000e+00    0.0000000000e+00 
  40.600000    1.8220905039e-02    0.0000000000e+00    0.0000000000e+00 
  40.800000    1.8221489104e-02    0.0000000000e+00    0.0000000000e+00 
  41.000000    1.8222161747e-02    0.0000000000e+00    0.0000000000e+00 
  41.200000    1.8222923008e-02    0.0000000000e+00    0.0000000000e+00 
  41.400000    1.8223772189e-02    0.0000000000e+00    0.0000000000e+00 
  41.600000    1.8224707875e-02    0.0000000000e+00    0.0000000000e+00 
  41.800000    1.8225727970e-02    0.0000000000e+00    0.0000000000e+00 
  42.000000    1.8226829738e-02    0.0000000000e+00    0.0000000000e+00 
  42.200000    1.8228009853e-02    0.0000000000e+00    0.0000000000e+00 
  42.400000    1.8229264461e-02    0.0000000000e+00    0.0000000000e+00 
  42.600000    1.8230589246e-02    0.0000000000e+00    0.0000000000e+00 
  42.800000    1.8231979499e-02    0.0000000000e+00    0.0000000000e+00 
  43.000000    1.8233430198e-02    0.0000000000e+00    0.0000000000e+00 
  43.200000    1.8234936087e-02    0.0000000000e+00    0.0000000000e+00 
  43.400000    1.8236491757e-02    0.0000000000e+00    0.0000000000e+00 
  43.600000    1.8238091722e-02    0.0000000000e+00    0.0000000000e+00 
  43.800000    1.8239730527e-02    0.0000000000e+00    0.0000000000e+00 
  44.000000    1.8241402815e-02    0.0000000000e+00    0.0000000000e+00 
  44.200000    1.8243103383e-02    0.0000000000e+00    0.0000000000e+00 
  44.400000    1.8244827284e-02    0.0000000000e+00    0.0000000000e+00 
  44.600000    1.8246569888e-02    0.0000000000e+00    0.0000000000e+00 
  44.800000    1.8248326947e-02    0.0000000000e+00    0.0000000000e+00 
  45.000000    1.8250094644e-02    0.0000000000e+00    0.0000000000e+00 
  45.200000    1.8251869648e-02    0.0000000000e+00    0.0000000000e+00 
  45.400000    1.8253649149e-02    0.0000000000e+00    0.0000000000e+00 
  45.600000    1.8255430890e-02    0.0000000000e+00    0.0000000000e+00 
  45.800000    1.8257213185e-02    0.0000000000e+00    0.0000000000e+00 
  46.000000    1.8258994932e-02    0.0000000000e+00    0.0000000000e+00 
  46.200000    1.8260775613e-02    0.0000000000e+00    0.0000000000e+00 
  46.400000    1.8262555281e-02    0.0000000000e+00    0.0000000000e+00 
  46.600000    1.8264334547e-02    0.0000000000e+00    0.0000000000e+00 
  46.800000    1.8266114546e-02    0.0000000000e+00    0.0000000000e+00 
  47.000000    1.8267896901e-02    0.0000000000e+00    0.0000000000e+00 
  47.200000    1.8269683676e-02    0.0000000000e+00    0.0000000000e+00 
  47.400000    1.8271477325e-02    0.0000000000e+00    0.0000000000e+00 
  47.600000    1.8273280625e-02    0.0000000000e+00    0.0000000000e+00 
  47.800000    1.8275096618e-02    0.0000000000e+00    0.0000000000e+00 
  48.000000    1.8276928528e-02    0.0000000000e+00    0.0000000000e+00 
  48.200000    1.8278779696e-02    0.0000000000e+00    0.0000000000e+00 
  48.400000    1.8280653492e-02    0.0000000000e+00    0.0000000000e+00 
  48.600000    1.8282553241e-02    0.0000000000e+00    0.0000000000e+00 
  48.800000    1.8284482137e-02    0.0000000000e+00    0.0000000000e+00 
  49.000000    1.8286443166e-02    0.0000000000e+00    0.0000000000e+00 
  49.200000    1.8288439025e-02    0.0000000000e+00    0.0000000000e+00 
  49.400000    1.8290472047e-02    0.0000000000e+00    0.0000000000e+00 
  49.600000    1.8292544126e-02    0.0000000000e+00    0.0000000000e+00 
  49.800000    1.8294656654e-02    0.0000000000e+00    0.0000000000e+00 
  50.000000    1.8296810456e-02    0.0000000000e+00    0.0000000000e+00 
  50.200000    1.8299005737e-02    0.0000000000e+00    0.0000000000e+00 
  50.400000    1.8301242032e-02    0.0000000000e+00    0.0000000000e+00 
  50.600000    1.8303518170e-02    0.0000000000e+00    0.0000000000e+00 
  50.800000    1.8305832240e-02    0.0000000000e+00    0.0000000000e+00 
  51.000000    1.8308181569e-02    0.0000000000e+00    0.0000000000e+00 
  51.200000    1.8310562711e-02    0.0000000000e+00    0.0000000000e+00 
  51.400000    1.8312971443e-02    0.0000000000e+00    0.0000000000e+00 
  51.600000    1.8315402770e-02    0.0000000000e+00    0.0000000000e+00 
  51.800000    1.8317850941e-02    0.0000000000e+00    0.0000000000e+00 
  52.000000    1.8320309474e-02    0.0000000000e+00    0.0000000000e+00 
  52.200000    1.8322771186e-02    0.0000000000e+00    0.0000000000e+00 
  52.400000    1.8325228241e-02    0.0000000000e+00    0.0000000000e+00 
  52.600000    1.8327672194e-02    0.0000000000e+00    0.0000000000e+00 
  52.800000    1.8330094050e-02    0.0000000000e+00    0.0000000000e+00 
  53.000000    1.8332484328e-02    0.0000000000e+00    0.0000000000e+00 
  53.200000    1.8334833129e-02    0.0000000000e+00    0.0000000000e+00 
  53.400000    1.8337130212e-02    0.0000000000e+00    0.0000000000e+00 
  53.600000    1.8339365072e-02    0.0000000000e+00    0.0000000000e+00 
  53.800000    1.8341527022e-02    0.0000000000e+00    0.0000000000e+00 
  54.000000    1.8343605276e-02    0.0000000000e+00    0.0000000000e+00 
  54.200000    1.8345589039e-02    0.0000000000e+00    0.0000000000e+00 
