
  &&electric field in cartesian unit:  1.000000e-03  0.000000e+00  0.000000e+00 
  &&current at groud state:    3.8618528554e-03    1.1002839387e-02   -1.1701498756e-08 nonzero due to kpoint sampling
  0.000000    3.7167966519e-03    1.0900883406e-02    1.9783343052e-07 
  0.200000    3.4453078958e-03    1.0709455221e-02    3.8375038025e-07 
  0.400000    3.2262485986e-03    1.0554941543e-02    5.2187838006e-07 
  0.600000    3.0863813656e-03    1.0456236744e-02    6.1427094951e-07 
  0.800000    3.0413150780e-03    1.0424368698e-02    6.7220394881e-07 
  1.000000    3.0934809865e-03    1.0461064707e-02    7.1252422671e-07 
  1.200000    3.2318100755e-03    1.0558520263e-02    7.5413239529e-07 
  1.400000    3.4333609914e-03    1.0700547158e-02    8.1440589597e-07 
  1.600000    3.6666709426e-03    1.0864939854e-02    9.0535407167e-07 
  1.800000    3.8961020257e-03    1.1026547704e-02    1.0306573852e-06 
  2.000000    4.0870345437e-03    1.1160946230e-02    1.1846291305e-06 
  2.200000    4.2106849278e-03    1.1247837902e-02    1.3517785708e-06 
  2.400000    4.2482337061e-03    1.1273970497e-02    1.5090555591e-06 
  2.600000    4.1932833085e-03    1.1234870424e-02    1.6313881386e-06 
  2.800000    4.0526939391e-03    1.1135427221e-02    1.6950501290e-06 
  3.000000    3.8454844878e-03    1.0989112911e-02    1.6823482871e-06 
  3.200000    3.5999696401e-03    1.0815950881e-02    1.5852760411e-06 
  3.400000    3.3497845377e-03    1.0639702806e-02    1.4057266910e-06 
  3.600000    3.1289819414e-03    1.0484397500e-02    1.1569226320e-06 
  3.800000    2.9671115233e-03    1.0370854505e-02    8.6385242622e-07 
  4.000000    2.8852497712e-03    1.0313884655e-02    5.5649353322e-07 
  4.200000    2.8931080398e-03    1.0320252849e-02    2.6531601221e-07 
  4.400000    2.9878498257e-03    1.0387854307e-02    1.8656416587e-08 
  4.600000    3.1547171434e-03    1.0506171077e-02   -1.6248633511e-07 
  4.800000    3.3693871919e-03    1.0657951256e-02   -2.6846666189e-07 
  5.000000    3.6014792736e-03    1.0821699600e-02   -3.0235434397e-07 
  5.200000    3.8190571693e-03    1.0974868278e-02   -2.7949318817e-07 
  5.400000    3.9932848318e-03    1.1097150037e-02   -2.2690131588e-07 
  5.600000    4.1023016236e-03    1.1173211516e-02   -1.7748452282e-07 
  5.800000    4.1341964137e-03    1.1194781401e-02   -1.6353214023e-07 
  6.000000    4.0884458767e-03    1.1161648232e-02   -2.1340510773e-07 
  6.200000    3.9756897689e-03    1.1081478000e-02   -3.4575276740e-07 
  6.400000    3.8159147575e-03    1.0968506051e-02   -5.6522498719e-07 
  6.600000    3.6353017462e-03    1.0841288329e-02   -8.6106170605e-07 
  6.800000    3.4624774702e-03    1.0720038294e-02   -1.2080140979e-06 
  7.000000    3.3240876354e-03    1.0623496049e-02   -1.5682468965e-06 
  7.200000    3.2411885082e-03    1.0566386355e-02   -1.8977517225e-06 
  7.400000    3.2263275663e-03    1.0557374914e-02   -2.1524884537e-06 
  7.600000    3.2819662076e-03    1.0597982750e-02   -2.2950110262e-06 
  7.800000    3.4003995746e-03    1.0682562019e-02   -2.3017090878e-06 
  8.000000    3.5651474172e-03    1.0799311188e-02   -2.1669202356e-06 
  8.200000    3.7535759636e-03    1.0932157738e-02   -1.9044233936e-06 
  8.400000    3.9403441485e-03    1.1063209562e-02   -1.5461698657e-06 
  8.600000    4.1011512038e-03    1.1175402685e-02   -1.1374014985e-06 
  8.800000    4.2162290769e-03    1.1254956540e-02   -7.3009544076e-07 
  9.000000    4.2730785231e-03    1.1293283312e-02   -3.7549485101e-07 
  9.200000    4.2680612607e-03    1.1288076814e-02   -1.1651035751e-07 
  9.400000    4.2066468715e-03    1.1243445257e-02    2.0400707629e-08 
  9.600000    4.1023110803e-03    1.1169095279e-02    2.9490528748e-08 
  9.800000    3.9742790846e-03    1.1078707493e-02   -7.4237416854e-08 
  10.000000    3.8444830827e-03    1.0987768863e-02   -2.5646140339e-07 
  10.200000    3.7342072757e-03    1.0911199487e-02   -4.6817001586e-07 
  10.400000    3.6609288094e-03    1.0861138196e-02   -6.5396022126e-07 
  10.600000    3.6358259566e-03    1.0845209115e-02   -7.5967083750e-07 
  10.800000    3.6623089436e-03    1.0865522260e-02   -7.4083814627e-07 
  11.000000    3.7357638354e-03    1.0918540634e-02   -5.7127404356e-07 
  11.200000    3.8445154290e-03    1.0995803211e-02   -2.4771830999e-07 
  11.400000    3.9718268312e-03    1.1085372848e-02    2.0924222859e-07 
  11.600000    4.0986019147e-03    1.1173766726e-02    7.5631416098e-07 
  11.800000    4.2063589389e-03    1.1248059766e-02    1.3326195755e-06 
  12.000000    4.2800155517e-03    1.1297835677e-02    1.8679511916e-06 
  12.200000    4.3100668939e-03    1.1316692884e-02    2.2959242224e-06 
  12.400000    4.2938475504e-03    1.1303089276e-02    2.5631474349e-06 
  12.600000    4.2357140798e-03    1.1260419293e-02    2.6353669637e-06 
  12.800000    4.1461526316e-03    1.1196333474e-02    2.5063296533e-06 
  13.000000    4.0399864793e-03    1.1121431484e-02    2.1981893222e-06 
  13.200000    3.9339799872e-03    1.1047546666e-02    1.7584493802e-06 
  13.400000    3.8442219975e-03    1.0985895361e-02    1.2554629178e-06 
  13.600000    3.7836952045e-03    1.0945379615e-02    7.6705967891e-07 
  13.800000    3.7603917667e-03    1.0931296105e-02    3.6706638388e-07 
  14.000000    3.7762456802e-03    1.0944634515e-02    1.1636486083e-07 
  14.200000    3.8270178244e-03    1.0982055365e-02    5.0856388765e-08 
  14.400000    3.9031238716e-03    1.1036531673e-02    1.7487089853e-07 
  14.600000    3.9912557487e-03    1.1098535561e-02    4.6081842148e-07 
  14.800000    4.0765271311e-03    1.1157575921e-02    8.5205096143e-07 
  15.000000    4.1448039907e-03    1.1203843640e-02    1.2731207950e-06 
  15.200000    4.1848637789e-03    1.1229711328e-02    1.6391993366e-06 
  15.400000    4.1900559571e-03    1.1230860539e-02    1.8703763642e-06 
  15.600000    4.1592242842e-03    1.1206874724e-02    1.9062851563e-06 
  15.800000    4.0967672109e-03    1.1161220072e-02    1.7145533642e-06 
  16.000000    4.0118453768e-03    1.1100629259e-02    1.2969263920e-06 
  16.200000    3.9168762343e-03    1.1033995848e-02    6.9014386760e-07 
  16.400000    3.8255619944e-03    1.0970960390e-02   -3.8222767523e-08 
  16.600000    3.7507642361e-03    1.0920411396e-02   -8.0012857130e-07 
  16.800000    3.7025522370e-03    1.0889138349e-02   -1.4996493898e-06 
  17.000000    3.6867284023e-03    1.0880836212e-02   -2.0478610990e-06 
  17.200000    3.7040443757e-03    1.0895612460e-02   -2.3771426470e-06 
  17.400000    3.7502107397e-03    1.0930059277e-02   -2.4507293239e-06 
  17.600000    3.8166838633e-03    1.0977866590e-02   -2.2692190755e-06 
  17.800000    3.8920874497e-03    1.1030872071e-02   -1.8716246794e-06 
  18.000000    3.9640307791e-03    1.1080368161e-02   -1.3298086485e-06 
  18.200000    4.0210330876e-03    1.1118455523e-02   -7.3819532111e-07 
  18.400000    4.0542524699e-03    1.1139233495e-02   -1.9815188979e-07 
  18.600000    4.0587542890e-03    1.1139645530e-02    1.9728124138e-07 
  18.800000    4.0341387415e-03    1.1119855278e-02    3.7791708710e-07 
  19.000000    3.9844529237e-03    1.1083114319e-02    3.0888399840e-07 
  19.200000    3.9174224470e-03    1.1035158089e-02   -2.9078846858e-09 
  19.400000    3.8431450788e-03    1.0983238069e-02   -5.0955008839e-07 
  19.600000    3.7724720907e-03    1.0934957903e-02   -1.1290087672e-06 
  19.800000    3.7153380022e-03    1.0897100860e-02   -1.7565827520e-06 
  20.000000    3.6792950910e-03    1.0874629671e-02   -2.2810675599e-06 
  20.200000    3.6684718731e-03    1.0870008688e-02   -2.6035940811e-06 
  20.400000    3.6830984867e-03    1.0882938436e-02   -2.6544326402e-06 
  20.600000    3.7196458931e-03    1.0910526673e-02   -2.4042928488e-06 
  20.800000    3.7715313011e-03    1.0947849679e-02   -1.8697275064e-06 
  21.000000    3.8302567719e-03    1.0988798768e-02   -1.1115474648e-06 
  21.200000    3.8867847612e-03    1.1027068742e-02   -2.2632112942e-07 
  21.400000    3.9329284409e-03    1.1057129488e-02    6.6839403567e-07 
  21.600000    3.9625442413e-03    1.1075028797e-02    1.4528275979e-06 
  21.800000    3.9723515087e-03    1.1078910865e-02    2.0228025157e-06 
  22.000000    3.9622700568e-03    1.1069182600e-02    2.3052993147e-06 
  22.200000    3.9352441928e-03    1.1048318914e-02    2.2726007835e-06 
  22.400000    3.8966077373e-03    1.1020352705e-02    1.9453036513e-06 
  22.600000    3.8531099128e-03    1.0990145266e-02    1.3891027063e-06 
  22.800000    3.8117707194e-03    1.0962564321e-02    7.0575291931e-07 
  23.000000    3.7787544966e-03    1.0941704859e-02    1.6687565986e-08 
  23.200000    3.7584442907e-03    1.0930274883e-02   -5.5644317687e-07 
  23.400000    3.7528538183e-03    1.0929239136e-02   -9.1174607005e-07 
  23.600000    3.7614578696e-03    1.0937771363e-02   -9.8166666982e-07 
  23.800000    3.7814550455e-03    1.0953506329e-02   -7.4474536453e-07 
  24.000000    3.8083931794e-03    1.0973044238e-02   -2.3131318298e-07 
  24.200000    3.8370392431e-03    1.0992606624e-02    4.8280358608e-07 
  24.400000    3.8623405445e-03    1.1008723179e-02    1.2872463994e-06 
  24.600000    3.8803050093e-03    1.1018837428e-02    2.0529698372e-06 
  24.800000    3.8886456482e-03    1.1021723530e-02    2.6529543135e-06 
  25.000000    3.8870908238e-03    1.1017645270e-02    2.9822664467e-06 
  25.200000    3.8773165558e-03    1.1008235681e-02    2.9758569718e-06 
  25.400000    3.8625198318e-03    1.0996127323e-02    2.6179946121e-06 
  25.600000    3.8467243980e-03    1.0984403612e-02    1.9463100870e-06 
  25.800000    3.8339523068e-03    1.0975976044e-02    1.0473844425e-06 
  26.000000    3.8274158010e-03    1.0973004500e-02    4.3496869394e-08 
  26.200000    3.8288812455e-03    1.0976466486e-02   -9.2626042333e-07 
  26.400000    3.8383195978e-03    1.0985953965e-02   -1.7273566500e-06 
  26.600000    3.8539075988e-03    1.0999735676e-02   -2.2515316031e-06 
  26.800000    3.8723790691e-03    1.1015075024e-02   -2.4347161695e-06 
  27.000000    3.8896587411e-03    1.1028745072e-02   -2.2663449351e-06 
  27.200000    3.9016631375e-03    1.1037647610e-02   -1.7909703277e-06 
  27.400000    3.9051204778e-03    1.1039424337e-02   -1.1028704252e-06 
  27.600000    3.8982587090e-03    1.1032945976e-02   -3.2945531793e-07 
  27.800000    3.8812322303e-03    1.1018592028e-02    3.8922749037e-07 
  28.000000    3.8562045720e-03    1.0998265855e-02    9.2305251230e-07 
  28.200000    3.8270681889e-03    1.0975134741e-02    1.1723067926e-06 
  28.400000    3.7988368602e-03    1.0953135735e-02    1.0834559578e-06 
  28.600000    3.7768107423e-03    1.0936325207e-02    6.5944103887e-07 
  28.800000    3.7656547203e-03    1.0928180717e-02   -4.0794379059e-08 
  29.000000    3.7685436657e-03    1.0930971249e-02   -9.1363059065e-07 
  29.200000    3.7865238540e-03    1.0945305807e-02   -1.8245638494e-06 
  29.400000    3.8182033646e-03    1.0969938041e-02   -2.6280025494e-06 
  29.600000    3.8598354410e-03    1.1001866468e-02   -3.1953476491e-06 
  29.800000    3.9057936882e-03    1.1036727491e-02   -3.4332412176e-06 
  30.000000    3.9493762321e-03    1.1069425346e-02   -3.2966648851e-06 
  30.200000    3.9838226440e-03    1.1094904349e-02   -2.7976628689e-06 
  30.400000    4.0033843194e-03    1.1108945952e-02   -2.0031682993e-06 
  30.600000    4.0042820979e-03    1.1108869075e-02   -1.0243079151e-06 
  30.800000    3.9853941949e-03    1.1094014607e-02   -8.5678321179e-10 
  31.000000    3.9485564323e-03    1.1065934007e-02    9.2117750264e-07 
  31.200000    3.8984145614e-03    1.1028242938e-02    1.6133760269e-06 
  31.400000    3.8418336958e-03    1.0986150323e-02    1.9847691269e-06 
  31.600000    3.7869427962e-03    1.0945726376e-02    1.9968553406e-06 
  31.800000    3.7419491326e-03    1.0913014301e-02    1.6689501400e-06 
  32.000000    3.7139013419e-03    1.0893120458e-02    1.0757083579e-06 
  32.200000    3.7075864178e-03    1.0889417899e-02    3.3518311578e-07 
  32.400000    3.7247404780e-03    1.0902991594e-02   -4.1047330187e-07 
  32.600000    3.7637018266e-03    1.0932418430e-02   -1.0182223185e-06 
  32.800000    3.8195656083e-03    1.0973919519e-02   -1.3672998237e-06 
  33.000000    3.8848341401e-03    1.1021870554e-02   -1.3796420128e-06 
  33.200000    3.9504710840e-03    1.1069597999e-02   -1.0331892199e-06 
  33.400000    4.0072063800e-03    1.1110345221e-02   -3.6551175359e-07 
  33.600000    4.0468961932e-03    1.1138264671e-02    5.3156291186e-07 
  33.800000    4.0637318447e-03    1.1149283846e-02    1.5263533292e-06 
  34.000000    4.0551165452e-03    1.1141717006e-02    2.4687928831e-06 
  34.200000    4.0220719004e-03    1.1116524783e-02    3.2143792585e-06 
  34.400000    3.9691115904e-03    1.1077185309e-02    3.6480281893e-06 
  34.600000    3.9036022859e-03    1.1029197722e-02    3.7021769354e-06 
  34.800000    3.8347052501e-03    1.0979287788e-02    3.3675256539e-06 
  35.000000    3.7720567486e-03    1.0934437349e-02    2.6952180645e-06 
  35.200000    3.7243820809e-03    1.0900880508e-02    1.7894177704e-06 
  35.400000    3.6982492923e-03    1.0883215446e-02    7.8960088961e-07 
  35.600000    3.6971431037e-03    1.0883759380e-02   -1.5242167378e-07 
  35.800000    3.7209902062e-03    1.0902238406e-02   -8.9557055989e-07 
  36.000000    3.7662011390e-03    1.0935853619e-02   -1.3316346351e-06 
  36.200000    3.8262159629e-03    1.0979708306e-02   -1.4038581777e-06 
  36.400000    3.8924694963e-03    1.1027530226e-02   -1.1165264841e-06 
  36.600000    3.9556313898e-03    1.1072581162e-02   -5.3367898516e-07 
  36.800000    4.0069406723e-03    1.1108619656e-02    2.3123301797e-07 
  37.000000    4.0394373547e-03    1.1130777769e-02    1.0332757996e-06 
  37.200000    4.0489184697e-03    1.1136227267e-02    1.7191650826e-06 
  37.400000    4.0344869759e-03    1.1124542167e-02    2.1521290067e-06 
  37.600000    3.9986165791e-03    1.1097711106e-02    2.2344360626e-06 
  37.800000    3.9467318147e-03    1.1059801807e-02    1.9235308751e-06 
  38.000000    3.8863742168e-03    1.1016336332e-02    1.2392034045e-06 
  38.200000    3.8260759391e-03    1.0973468437e-02    2.6343164509e-07 
  38.400000    3.7741158162e-03    1.0937084136e-02   -8.7324050432e-07 
  38.600000    3.7373422639e-03    1.0911965770e-02   -2.0116884662e-06 
  38.800000    3.7202263771e-03    1.0901136476e-02   -2.9884955820e-06 
  39.000000    3.7242880810e-03    1.0905477702e-02   -3.6632989232e-06 
  39.200000    3.7479708641e-03    1.0923670471e-02   -3.9404244991e-06 
  39.400000    3.7869676851e-03    1.0952460627e-02   -3.7839014374e-06 
  39.600000    3.8349421220e-03    1.0987199617e-02   -3.2245901575e-06 
  39.800000    3.8845261061e-03    1.1022574915e-02   -2.3569861387e-06 
  40.000000    3.9284345965e-03    1.1053412705e-02   -1.3232724725e-06 
  40.200000    3.9605309064e-03    1.1075428841e-02   -2.9109181923e-07 
  40.400000    3.9766800379e-03    1.1085821440e-02    5.7171540481e-07 
  40.600000    3.9752684875e-03    1.1083620300e-02    1.1261688013e-06 
  40.800000    3.9573279775e-03    1.1069746890e-02    1.2840889358e-06 
  41.000000    3.9262592023e-03    1.1046786474e-02    1.0215600955e-06 
  41.200000    3.8872124300e-03    1.1018524100e-02    3.8440121729e-07 
  41.400000    3.8462311067e-03    1.0989323473e-02   -5.1861090919e-07 
  41.600000    3.8093048605e-03    1.0963444522e-02   -1.5338877359e-06 
  41.800000    3.7814758538e-03    1.0944407706e-02   -2.4869036174e-06 
  42.000000    3.7661289098e-03    1.0934502207e-02   -3.2084664461e-06 
  42.200000    3.7645686694e-03    1.0934504992e-02   -3.5625071583e-06 
  42.400000    3.7759344092e-03    1.0943642373e-02   -3.4682922440e-06 
  42.600000    3.7974485152e-03    1.0959789884e-02   -2.9146642142e-06 
  42.800000    3.8249457019e-03    1.0979870040e-02   -1.9621504086e-06 
  43.000000    3.8535925586e-03    1.1000380339e-02   -7.3245194887e-07 
  43.200000    3.8786750646e-03    1.1017961024e-02    6.0714688542e-07 
  43.400000    3.8963335511e-03    1.1029914627e-02    1.8692745998e-06 
  43.600000    3.9041314465e-03    1.1034602213e-02    2.8779703195e-06 
  43.800000    3.9013752345e-03    1.1031656496e-02    3.4941691036e-06 
  44.000000    3.8891460178e-03    1.1021984570e-02    3.6375663153e-06 
  44.200000    3.8700457864e-03    1.1007566746e-02    3.3002155219e-06 
  44.400000    3.8477083447e-03    1.0991091047e-02    2.5473171022e-06 
  44.600000    3.8261589331e-03    1.0975484501e-02    1.5088032605e-06 
  44.800000    3.8091319891e-03    1.0963419977e-02    3.5977726891e-07 
  45.000000    3.7994541460e-03    1.0956878557e-02   -7.0818434105e-07 
  45.200000    3.7985939808e-03    1.0956837442e-02   -1.5168764898e-06 
  45.400000    3.8064489419e-03    1.0963128630e-02   -1.9299409867e-06 
  45.600000    3.8213970827e-03    1.0974489971e-02   -1.8735151690e-06 
  45.800000    3.8406041735e-03    1.0988801499e-02   -1.3488054115e-06 
  46.000000    3.8605269251e-03    1.1003457608e-02   -4.3412088015e-07 
  46.200000    3.8775308571e-03    1.1015813360e-02    7.2747743601e-07 
  46.400000    3.8885160459e-03    1.1023636053e-02    1.9503984242e-06 
  46.600000    3.8914415624e-03    1.1025482535e-02    3.0356278026e-06 
  46.800000    3.8856700570e-03    1.1020939308e-02    3.8018510302e-06 
  47.000000    3.8720736839e-03    1.1010690528e-02    4.1147886877e-06 
  47.200000    3.8528861793e-03    1.0996403055e-02    3.9089077949e-06 
  47.400000    3.8313293695e-03    1.0980449290e-02    3.1979509055e-06 
  47.600000    3.8110751706e-03    1.0965517437e-02    2.0738684924e-06 
  47.800000    3.7956369065e-03    1.0954168933e-02    6.9298186606e-07 
  48.000000    3.7877887094e-03    1.0948416949e-02   -7.4760504057e-07 
  48.200000    3.7891042087e-03    1.0949395413e-02   -2.0403734284e-06 
  48.400000    3.7996902715e-03    1.0957168408e-02   -3.0007529213e-06 
  48.600000    3.8181560633e-03    1.0970711275e-02   -3.4945243038e-06 
  48.800000    3.8418208336e-03    1.0988063334e-02   -3.4591603909e-06 
  49.000000    3.8671261123e-03    1.1006626812e-02   -2.9149984003e-06 
  49.200000    3.8901859815e-03    1.1023566628e-02   -1.9619613421e-06 
  49.400000    3.9073888965e-03    1.1036248207e-02   -7.6410612121e-07 
  49.600000    3.9159592172e-03    1.1042645022e-02    4.7630479818e-07 
  49.800000    3.9143926256e-03    1.1041653454e-02    1.5502664044e-06 
  50.000000    3.9026970304e-03    1.1033268380e-02    2.2742384072e-06 
  50.200000    3.8824041893e-03    1.1018592978e-02    2.5200402960e-06 
  50.400000    3.8563508311e-03    1.0999680745e-02    2.2365730245e-06 
  50.600000    3.8282613686e-03    1.0979234367e-02    1.4566889276e-06 
  50.800000    3.8021954951e-03    1.0960205173e-02    2.9439631492e-07 
  51.000000    3.7819444298e-03    1.0945357453e-02   -1.0722756905e-06 
  51.200000    3.7704663974e-03    1.0936858059e-02   -2.4293717319e-06 
  51.400000    3.7694449700e-03    1.0935954043e-02   -3.5941107703e-06 
  51.600000    3.7790422619e-03    1.0942787733e-02   -4.3070105721e-06 
  51.800000    3.7978709366e-03    1.0956376743e-02   -4.4786880634e-06 
  52.000000    3.8232064529e-03    1.0974763173e-02   -4.0672426496e-06 
  52.200000    3.8513947517e-03    1.0995303526e-02   -3.1205257741e-06 
  52.400000    3.8783946423e-03    1.1015059724e-02   -1.7712969598e-06 
  52.600000    3.9003756045e-03    1.1031231726e-02   -2.1589606225e-07 
  52.800000    3.9142766652e-03    1.1041564993e-02    1.3168793047e-06 
  53.000000    3.9182427837e-03    1.1044672075e-02    2.6002965923e-06 
  53.200000    3.9118773480e-03    1.1040221843e-02    3.4458402645e-06 
  53.400000    3.8962738274e-03    1.1028970517e-02    3.7327696895e-06 
  53.600000    3.8738266852e-03    1.1012631738e-02    3.4276573062e-06 
  53.800000    3.8478544545e-03    1.0993609174e-02    2.5895774617e-06 
  54.000000    3.8220970003e-03    1.0974633731e-02    1.3629387337e-06 
