
  &&electric field in cartesian unit:  1.000000e-03  0.000000e+00  0.000000e+00 
  &&current at groud state:    1.2384015651e-05    0.0000000000e+00    0.0000000000e+00 
  0.000000    1.0455131672e-05    0.0000000000e+00    0.0000000000e+00 
  0.200000    1.0947389077e-05    0.0000000000e+00    0.0000000000e+00 
  0.400000    1.1415597837e-05    0.0000000000e+00    0.0000000000e+00 
  0.600000    1.1839853195e-05    0.0000000000e+00    0.0000000000e+00 
  0.800000    1.2201848741e-05    0.0000000000e+00    0.0000000000e+00 
  1.000000    1.2485856142e-05    0.0000000000e+00    0.0000000000e+00 
  1.200000    1.2679480077e-05    0.0000000000e+00    0.0000000000e+00 
  1.400000    1.2774260510e-05    0.0000000000e+00    0.0000000000e+00 
  1.600000    1.2766092100e-05    0.0000000000e+00    0.0000000000e+00 
  1.800000    1.2655459425e-05    0.0000000000e+00    0.0000000000e+00 
  2.000000    1.2447112553e-05    0.0000000000e+00    0.0000000000e+00 
  2.200000    1.2150459878e-05    0.0000000000e+00    0.0000000000e+00 
  2.400000    1.1778862429e-05    0.0000000000e+00    0.0000000000e+00 
  2.600000    1.1349940469e-05    0.0000000000e+00    0.0000000000e+00 
  2.800000    1.0882211747e-05    0.0000000000e+00    0.0000000000e+00 
  3.000000    1.0396601618e-05    0.0000000000e+00    0.0000000000e+00 
  3.200000    9.9147819732e-06    0.0000000000e+00    0.0000000000e+00 
  3.400000    9.4581939662e-06    0.0000000000e+00    0.0000000000e+00 
  3.600000    9.0470903518e-06    0.0000000000e+00    0.0000000000e+00 
  3.800000    8.6996433420e-06    0.0000000000e+00    0.0000000000e+00 
  4.000000    8.4311600923e-06    0.0000000000e+00    0.0000000000e+00 
  4.200000    8.2534420686e-06    0.0000000000e+00    0.0000000000e+00 
  4.400000    8.1743168794e-06    0.0000000000e+00    0.0000000000e+00 
  4.600000    8.1973621542e-06    0.0000000000e+00    0.0000000000e+00 
  4.800000    8.3218311718e-06    0.0000000000e+00    0.0000000000e+00 
  5.000000    8.5427797409e-06    0.0000000000e+00    0.0000000000e+00 
  5.200000    8.8513838410e-06    0.0000000000e+00    0.0000000000e+00 
  5.400000    9.2354282642e-06    0.0000000000e+00    0.0000000000e+00 
  5.600000    9.6799384590e-06    0.0000000000e+00    0.0000000000e+00 
  5.800000    1.0167921316e-05    0.0000000000e+00    0.0000000000e+00 
  6.000000    1.0681176127e-05    0.0000000000e+00    0.0000000000e+00 
  6.200000    1.1202025894e-05    0.0000000000e+00    0.0000000000e+00 
  6.400000    1.1710553776e-05    0.0000000000e+00    0.0000000000e+00 
  6.600000    1.2190779386e-05    0.0000000000e+00    0.0000000000e+00 
  6.800000    1.2627755258e-05    0.0000000000e+00    0.0000000000e+00 
  7.000000    1.3009029694e-05    0.0000000000e+00    0.0000000000e+00 
  7.200000    1.3325077743e-05    0.0000000000e+00    0.0000000000e+00 
  7.400000    1.3569577329e-05    0.0000000000e+00    0.0000000000e+00 
  7.600000    1.3739524224e-05    0.0000000000e+00    0.0000000000e+00 
  7.800000    1.3835188067e-05    0.0000000000e+00    0.0000000000e+00 
  8.000000    1.3859919720e-05    0.0000000000e+00    0.0000000000e+00 
  8.200000    1.3819827408e-05    0.0000000000e+00    0.0000000000e+00 
  8.400000    1.3723345042e-05    0.0000000000e+00    0.0000000000e+00 
  8.600000    1.3580720537e-05    0.0000000000e+00    0.0000000000e+00 
  8.800000    1.3403454623e-05    0.0000000000e+00    0.0000000000e+00 
  9.000000    1.3203721536e-05    0.0000000000e+00    0.0000000000e+00 
  9.200000    1.2993802072e-05    0.0000000000e+00    0.0000000000e+00 
  9.400000    1.2785556956e-05    0.0000000000e+00    0.0000000000e+00 
  9.600000    1.2589964460e-05    0.0000000000e+00    0.0000000000e+00 
  9.800000    1.2416741063e-05    0.0000000000e+00    0.0000000000e+00 
  10.000000    1.2274058014e-05    0.0000000000e+00    0.0000000000e+00 
  10.200000    1.2167538081e-05    0.0000000000e+00    0.0000000000e+00 
  10.400000    1.2103500504e-05    0.0000000000e+00    0.0000000000e+00 
  10.600000    1.2083964674e-05    0.0000000000e+00    0.0000000000e+00 
  10.800000    1.2110099274e-05    0.0000000000e+00    0.0000000000e+00 
  11.000000    1.2181562977e-05    0.0000000000e+00    0.0000000000e+00 
  11.200000    1.2296201163e-05    0.0000000000e+00    0.0000000000e+00 
  11.400000    1.2452036687e-05    0.0000000000e+00    0.0000000000e+00 
  11.600000    1.2645676550e-05    0.0000000000e+00    0.0000000000e+00 
  11.800000    1.2873215822e-05    0.0000000000e+00    0.0000000000e+00 
  12.000000    1.3130478803e-05    0.0000000000e+00    0.0000000000e+00 
  12.200000    1.3413061684e-05    0.0000000000e+00    0.0000000000e+00 
  12.400000    1.3716790362e-05    0.0000000000e+00    0.0000000000e+00 
  12.600000    1.4037664017e-05    0.0000000000e+00    0.0000000000e+00 
  12.800000    1.4371896923e-05    0.0000000000e+00    0.0000000000e+00 
  13.000000    1.4715911393e-05    0.0000000000e+00    0.0000000000e+00 
  13.200000    1.5066290158e-05    0.0000000000e+00    0.0000000000e+00 
  13.400000    1.5419699696e-05    0.0000000000e+00    0.0000000000e+00 
  13.600000    1.5772798184e-05    0.0000000000e+00    0.0000000000e+00 
  13.800000    1.6122745894e-05    0.0000000000e+00    0.0000000000e+00 
  14.000000    1.6465251352e-05    0.0000000000e+00    0.0000000000e+00 
  14.200000    1.6796425257e-05    0.0000000000e+00    0.0000000000e+00 
  14.400000    1.7112141900e-05    0.0000000000e+00    0.0000000000e+00 
  14.600000    1.7408072186e-05    0.0000000000e+00    0.0000000000e+00 
  14.800000    1.7679766879e-05    0.0000000000e+00    0.0000000000e+00 
  15.000000    1.7922788298e-05    0.0000000000e+00    0.0000000000e+00 
  15.200000    1.8132885407e-05    0.0000000000e+00    0.0000000000e+00 
  15.400000    1.8306203117e-05    0.0000000000e+00    0.0000000000e+00 
  15.600000    1.8439513007e-05    0.0000000000e+00    0.0000000000e+00 
  15.800000    1.8530449909e-05    0.0000000000e+00    0.0000000000e+00 
  16.000000    1.8578071346e-05    0.0000000000e+00    0.0000000000e+00 
  16.200000    1.8582095466e-05    0.0000000000e+00    0.0000000000e+00 
  16.400000    1.8543932058e-05    0.0000000000e+00    0.0000000000e+00 
  16.600000    1.8466510131e-05    0.0000000000e+00    0.0000000000e+00 
  16.800000    1.8353803373e-05    0.0000000000e+00    0.0000000000e+00 
  17.000000    1.8212263196e-05    0.0000000000e+00    0.0000000000e+00 
  17.200000    1.8049163725e-05    0.0000000000e+00    0.0000000000e+00 
  17.400000    1.7872848207e-05    0.0000000000e+00    0.0000000000e+00 
  17.600000    1.7692412763e-05    0.0000000000e+00    0.0000000000e+00 
  17.800000    1.7517324586e-05    0.0000000000e+00    0.0000000000e+00 
  18.000000    1.7356992443e-05    0.0000000000e+00    0.0000000000e+00 
  18.200000    1.7220310385e-05    0.0000000000e+00    0.0000000000e+00 
  18.400000    1.7115198236e-05    0.0000000000e+00    0.0000000000e+00 
  18.600000    1.7048163912e-05    0.0000000000e+00    0.0000000000e+00 
  18.800000    1.7023912609e-05    0.0000000000e+00    0.0000000000e+00 
  19.000000    1.7045026412e-05    0.0000000000e+00    0.0000000000e+00 
  19.200000    1.7111735018e-05    0.0000000000e+00    0.0000000000e+00 
  19.400000    1.7221794039e-05    0.0000000000e+00    0.0000000000e+00 
  19.600000    1.7370482133e-05    0.0000000000e+00    0.0000000000e+00 
  19.800000    1.7550722079e-05    0.0000000000e+00    0.0000000000e+00 
  20.000000    1.7753324402e-05    0.0000000000e+00    0.0000000000e+00 
  20.200000    1.7967345485e-05    0.0000000000e+00    0.0000000000e+00 
  20.400000    1.8180545700e-05    0.0000000000e+00    0.0000000000e+00 
  20.600000    1.8379927336e-05    0.0000000000e+00    0.0000000000e+00 
  20.800000    1.8552327316e-05    0.0000000000e+00    0.0000000000e+00 
  21.000000    1.8685036154e-05    0.0000000000e+00    0.0000000000e+00 
  21.200000    1.8766412527e-05    0.0000000000e+00    0.0000000000e+00 
  21.400000    1.8786462426e-05    0.0000000000e+00    0.0000000000e+00 
  21.600000    1.8737353016e-05    0.0000000000e+00    0.0000000000e+00 
  21.800000    1.8613834191e-05    0.0000000000e+00    0.0000000000e+00 
  22.000000    1.8413545116e-05    0.0000000000e+00    0.0000000000e+00 
  22.200000    1.8137188619e-05    0.0000000000e+00    0.0000000000e+00 
  22.400000    1.7788562835e-05    0.0000000000e+00    0.0000000000e+00 
  22.600000    1.7374446691e-05    0.0000000000e+00    0.0000000000e+00 
  22.800000    1.6904343249e-05    0.0000000000e+00    0.0000000000e+00 
  23.000000    1.6390092146e-05    0.0000000000e+00    0.0000000000e+00 
  23.200000    1.5845369160e-05    0.0000000000e+00    0.0000000000e+00 
  23.400000    1.5285096686e-05    0.0000000000e+00    0.0000000000e+00 
  23.600000    1.4724793532e-05    0.0000000000e+00    0.0000000000e+00 
  23.800000    1.4179895581e-05    0.0000000000e+00    0.0000000000e+00 
  24.000000    1.3665080324e-05    0.0000000000e+00    0.0000000000e+00 
  24.200000    1.3193628096e-05    0.0000000000e+00    0.0000000000e+00 
  24.400000    1.2776850893e-05    0.0000000000e+00    0.0000000000e+00 
  24.600000    1.2423616156e-05    0.0000000000e+00    0.0000000000e+00 
  24.800000    1.2139988009e-05    0.0000000000e+00    0.0000000000e+00 
  25.000000    1.1929002364e-05    0.0000000000e+00    0.0000000000e+00 
  25.200000    1.1790585505e-05    0.0000000000e+00    0.0000000000e+00 
  25.400000    1.1721618434e-05    0.0000000000e+00    0.0000000000e+00 
  25.600000    1.1716141964e-05    0.0000000000e+00    0.0000000000e+00 
  25.800000    1.1765690515e-05    0.0000000000e+00    0.0000000000e+00 
  26.000000    1.1859736302e-05    0.0000000000e+00    0.0000000000e+00 
  26.200000    1.1986220321e-05    0.0000000000e+00    0.0000000000e+00 
  26.400000    1.2132142584e-05    0.0000000000e+00    0.0000000000e+00 
  26.600000    1.2284181542e-05    0.0000000000e+00    0.0000000000e+00 
  26.800000    1.2429311772e-05    0.0000000000e+00    0.0000000000e+00 
  27.000000    1.2555389721e-05    0.0000000000e+00    0.0000000000e+00 
  27.200000    1.2651679557e-05    0.0000000000e+00    0.0000000000e+00 
  27.400000    1.2709294897e-05    0.0000000000e+00    0.0000000000e+00 
  27.600000    1.2721537010e-05    0.0000000000e+00    0.0000000000e+00 
  27.800000    1.2684115900e-05    0.0000000000e+00    0.0000000000e+00 
  28.000000    1.2595246963e-05    0.0000000000e+00    0.0000000000e+00 
  28.200000    1.2455622553e-05    0.0000000000e+00    0.0000000000e+00 
  28.400000    1.2268264165e-05    0.0000000000e+00    0.0000000000e+00 
  28.600000    1.2038266961e-05    0.0000000000e+00    0.0000000000e+00 
  28.800000    1.1772453547e-05    0.0000000000e+00    0.0000000000e+00 
  29.000000    1.1478958050e-05    0.0000000000e+00    0.0000000000e+00 
  29.200000    1.1166764477e-05    0.0000000000e+00    0.0000000000e+00 
  29.400000    1.0845224903e-05    0.0000000000e+00    0.0000000000e+00 
  29.600000    1.0523583160e-05    0.0000000000e+00    0.0000000000e+00 
  29.800000    1.0210528502e-05    0.0000000000e+00    0.0000000000e+00 
  30.000000    9.9138011794e-06    0.0000000000e+00    0.0000000000e+00 
  30.200000    9.6398682890e-06    0.0000000000e+00    0.0000000000e+00 
  30.400000    9.3936837618e-06    0.0000000000e+00    0.0000000000e+00 
  30.600000    9.1785412836e-06    0.0000000000e+00    0.0000000000e+00 
  30.800000    8.9960235527e-06    0.0000000000e+00    0.0000000000e+00 
  31.000000    8.8460459023e-06    0.0000000000e+00    0.0000000000e+00 
  31.200000    8.7269872242e-06    0.0000000000e+00    0.0000000000e+00 
  31.400000    8.6358966243e-06    0.0000000000e+00    0.0000000000e+00 
  31.600000    8.5687605287e-06    0.0000000000e+00    0.0000000000e+00 
  31.800000    8.5208122407e-06    0.0000000000e+00    0.0000000000e+00 
  32.000000    8.4868643366e-06    0.0000000000e+00    0.0000000000e+00 
  32.200000    8.4616438381e-06    0.0000000000e+00    0.0000000000e+00 
  32.400000    8.4401108081e-06    0.0000000000e+00    0.0000000000e+00 
  32.600000    8.4177427857e-06    0.0000000000e+00    0.0000000000e+00 
  32.800000    8.3907702055e-06    0.0000000000e+00    0.0000000000e+00 
  33.000000    8.3563514168e-06    0.0000000000e+00    0.0000000000e+00 
  33.200000    8.3126799228e-06    0.0000000000e+00    0.0000000000e+00 
  33.400000    8.2590207596e-06    0.0000000000e+00    0.0000000000e+00 
  33.600000    8.1956772525e-06    0.0000000000e+00    0.0000000000e+00 
  33.800000    8.1238934951e-06    0.0000000000e+00    0.0000000000e+00 
  34.000000    8.0457015410e-06    0.0000000000e+00    0.0000000000e+00 
  34.200000    7.9637253067e-06    0.0000000000e+00    0.0000000000e+00 
  34.400000    7.8809553702e-06    0.0000000000e+00    0.0000000000e+00 
  34.600000    7.8005101374e-06    0.0000000000e+00    0.0000000000e+00 
  34.800000    7.7253991682e-06    0.0000000000e+00    0.0000000000e+00 
  35.000000    7.6583038229e-06    0.0000000000e+00    0.0000000000e+00 
  35.200000    7.6013888654e-06    0.0000000000e+00    0.0000000000e+00 
  35.400000    7.5561563555e-06    0.0000000000e+00    0.0000000000e+00 
  35.600000    7.5233502449e-06    0.0000000000e+00    0.0000000000e+00 
  35.800000    7.5029167173e-06    0.0000000000e+00    0.0000000000e+00 
  36.000000    7.4940217362e-06    0.0000000000e+00    0.0000000000e+00 
  36.200000    7.4951236548e-06    0.0000000000e+00    0.0000000000e+00 
  36.400000    7.5040953508e-06    0.0000000000e+00    0.0000000000e+00 
  36.600000    7.5183873453e-06    0.0000000000e+00    0.0000000000e+00 
  36.800000    7.5352209362e-06    0.0000000000e+00    0.0000000000e+00 
  37.000000    7.5517986418e-06    0.0000000000e+00    0.0000000000e+00 
  37.200000    7.5655183130e-06    0.0000000000e+00    0.0000000000e+00 
  37.400000    7.5741771544e-06    0.0000000000e+00    0.0000000000e+00 
  37.600000    7.5761526167e-06    0.0000000000e+00    0.0000000000e+00 
  37.800000    7.5705485987e-06    0.0000000000e+00    0.0000000000e+00 
  38.000000    7.5572975596e-06    0.0000000000e+00    0.0000000000e+00 
  38.200000    7.5372118306e-06    0.0000000000e+00    0.0000000000e+00 
  38.400000    7.5119804839e-06    0.0000000000e+00    0.0000000000e+00 
  38.600000    7.4841113757e-06    0.0000000000e+00    0.0000000000e+00 
  38.800000    7.4568212376e-06    0.0000000000e+00    0.0000000000e+00 
  39.000000    7.4338797668e-06    0.0000000000e+00    0.0000000000e+00 
  39.200000    7.4194163748e-06    0.0000000000e+00    0.0000000000e+00 
  39.400000    7.4177004595e-06    0.0000000000e+00    0.0000000000e+00 
  39.600000    7.4329076314e-06    0.0000000000e+00    0.0000000000e+00 
  39.800000    7.4688851810e-06    0.0000000000e+00    0.0000000000e+00 
  40.000000    7.5289301719e-06    0.0000000000e+00    0.0000000000e+00 
  40.200000    7.6155928858e-06    0.0000000000e+00    0.0000000000e+00 
  40.400000    7.7305169730e-06    0.0000000000e+00    0.0000000000e+00 
  40.600000    7.8743256624e-06    0.0000000000e+00    0.0000000000e+00 
  40.800000    8.0465608640e-06    0.0000000000e+00    0.0000000000e+00 
  41.000000    8.2456791078e-06    0.0000000000e+00    0.0000000000e+00 
  41.200000    8.4691051591e-06    0.0000000000e+00    0.0000000000e+00 
  41.400000    8.7133410085e-06    0.0000000000e+00    0.0000000000e+00 
  41.600000    8.9741249157e-06    0.0000000000e+00    0.0000000000e+00 
  41.800000    9.2466324674e-06    0.0000000000e+00    0.0000000000e+00 
  42.000000    9.5257093237e-06    0.0000000000e+00    0.0000000000e+00 
  42.200000    9.8061235901e-06    0.0000000000e+00    0.0000000000e+00 
  42.400000    1.0082824671e-05    0.0000000000e+00    0.0000000000e+00 
  42.600000    1.0351195064e-05    0.0000000000e+00    0.0000000000e+00 
  42.800000    1.0607281874e-05    0.0000000000e+00    0.0000000000e+00 
  43.000000    1.0847995849e-05    0.0000000000e+00    0.0000000000e+00 
  43.200000    1.1071267366e-05    0.0000000000e+00    0.0000000000e+00 
  43.400000    1.1276151001e-05    0.0000000000e+00    0.0000000000e+00 
  43.600000    1.1462872922e-05    0.0000000000e+00    0.0000000000e+00 
  43.800000    1.1632818249e-05    0.0000000000e+00    0.0000000000e+00 
  44.000000    1.1788458586e-05    0.0000000000e+00    0.0000000000e+00 
  44.200000    1.1933222915e-05    0.0000000000e+00    0.0000000000e+00 
  44.400000    1.2071317954e-05    0.0000000000e+00    0.0000000000e+00 
  44.600000    1.2207506586e-05    0.0000000000e+00    0.0000000000e+00 
  44.800000    1.2346855086e-05    0.0000000000e+00    0.0000000000e+00 
  45.000000    1.2494461458e-05    0.0000000000e+00    0.0000000000e+00 
  45.200000    1.2655178126e-05    0.0000000000e+00    0.0000000000e+00 
  45.400000    1.2833342556e-05    0.0000000000e+00    0.0000000000e+00 
  45.600000    1.3032529009e-05    0.0000000000e+00    0.0000000000e+00 
  45.800000    1.3255333629e-05    0.0000000000e+00    0.0000000000e+00 
  46.000000    1.3503203504e-05    0.0000000000e+00    0.0000000000e+00 
  46.200000    1.3776318208e-05    0.0000000000e+00    0.0000000000e+00 
  46.400000    1.4073529892e-05    0.0000000000e+00    0.0000000000e+00 
  46.600000    1.4392365183e-05    0.0000000000e+00    0.0000000000e+00 
  46.800000    1.4729089268e-05    0.0000000000e+00    0.0000000000e+00 
  47.000000    1.5078829594e-05    0.0000000000e+00    0.0000000000e+00 
  47.200000    1.5435753878e-05    0.0000000000e+00    0.0000000000e+00 
  47.400000    1.5793294547e-05    0.0000000000e+00    0.0000000000e+00 
  47.600000    1.6144409627e-05    0.0000000000e+00    0.0000000000e+00 
  47.800000    1.6481868392e-05    0.0000000000e+00    0.0000000000e+00 
  48.000000    1.6798549000e-05    0.0000000000e+00    0.0000000000e+00 
  48.200000    1.7087734755e-05    0.0000000000e+00    0.0000000000e+00 
  48.400000    1.7343395750e-05    0.0000000000e+00    0.0000000000e+00 
  48.600000    1.7560443305e-05    0.0000000000e+00    0.0000000000e+00 
  48.800000    1.7734945850e-05    0.0000000000e+00    0.0000000000e+00 
  49.000000    1.7864296651e-05    0.0000000000e+00    0.0000000000e+00 
  49.200000    1.7947325929e-05    0.0000000000e+00    0.0000000000e+00 
  49.400000    1.7984352415e-05    0.0000000000e+00    0.0000000000e+00 
  49.600000    1.7977172055e-05    0.0000000000e+00    0.0000000000e+00 
  49.800000    1.7928984349e-05    0.0000000000e+00    0.0000000000e+00 
  50.000000    1.7844259543e-05    0.0000000000e+00    0.0000000000e+00 
  50.200000    1.7728552443e-05    0.0000000000e+00    0.0000000000e+00 
  50.400000    1.7588270950e-05    0.0000000000e+00    0.0000000000e+00 
  50.600000    1.7430409303e-05    0.0000000000e+00    0.0000000000e+00 
  50.800000    1.7262257533e-05    0.0000000000e+00    0.0000000000e+00 
  51.000000    1.7091099592e-05    0.0000000000e+00    0.0000000000e+00 
  51.200000    1.6923913040e-05    0.0000000000e+00    0.0000000000e+00 
  51.400000    1.6767083057e-05    0.0000000000e+00    0.0000000000e+00 
  51.600000    1.6626142866e-05    0.0000000000e+00    0.0000000000e+00 
  51.800000    1.6505551471e-05    0.0000000000e+00    0.0000000000e+00 
  52.000000    1.6408517946e-05    0.0000000000e+00    0.0000000000e+00 
  52.200000    1.6336879533e-05    0.0000000000e+00    0.0000000000e+00 
  52.400000    1.6291038440e-05    0.0000000000e+00    0.0000000000e+00 
  52.600000    1.6269959771e-05    0.0000000000e+00    0.0000000000e+00 
  52.800000    1.6271230397e-05    0.0000000000e+00    0.0000000000e+00 
  53.000000    1.6291176055e-05    0.0000000000e+00    0.0000000000e+00 
  53.200000    1.6325031505e-05    0.0000000000e+00    0.0000000000e+00 
  53.400000    1.6367156422e-05    0.0000000000e+00    0.0000000000e+00 
  53.600000    1.6411287813e-05    0.0000000000e+00    0.0000000000e+00 
  53.800000    1.6450818312e-05    0.0000000000e+00    0.0000000000e+00 
  54.000000    1.6479088675e-05    0.0000000000e+00    0.0000000000e+00 
  54.200000    1.6489682309e-05    0.0000000000e+00    0.0000000000e+00 
