&& imag part epsilon2(omega) tensor, xx, yy,zz xy, xz, yz
0.000000    1.660232e-01 1.660232e-01 1.660232e-01   -5.692173e-21 -1.643066e-20 -1.024535e-20
0.010000    1.669475e-01 1.669475e-01 1.669475e-01   -5.725388e-21 -1.652408e-20 -1.030590e-20
0.020000    1.678798e-01 1.678798e-01 1.678798e-01   -5.758904e-21 -1.661832e-20 -1.036699e-20
0.030000    1.688204e-01 1.688204e-01 1.688204e-01   -5.792725e-21 -1.671338e-20 -1.042866e-20
0.040000    1.697691e-01 1.697691e-01 1.697691e-01   -5.826853e-21 -1.680927e-20 -1.049089e-20
0.050000    1.707263e-01 1.707263e-01 1.707263e-01   -5.861294e-21 -1.690600e-20 -1.055370e-20
0.060000    1.716919e-01 1.716919e-01 1.716919e-01   -5.896051e-21 -1.700359e-20 -1.061710e-20
0.070000    1.726660e-01 1.726660e-01 1.726660e-01   -5.931128e-21 -1.710204e-20 -1.068109e-20
0.080000    1.736488e-01 1.736488e-01 1.736488e-01   -5.966530e-21 -1.720136e-20 -1.074568e-20
0.090000    1.746404e-01 1.746404e-01 1.746404e-01   -6.002259e-21 -1.730157e-20 -1.081088e-20
0.100000    1.756409e-01 1.756409e-01 1.756409e-01   -6.038321e-21 -1.740267e-20 -1.087670e-20
0.110000    1.766503e-01 1.766503e-01 1.766503e-01   -6.074720e-21 -1.750468e-20 -1.094314e-20
0.120000    1.776689e-01 1.776689e-01 1.776689e-01   -6.111460e-21 -1.760760e-20 -1.101022e-20
0.130000    1.786966e-01 1.786966e-01 1.786966e-01   -6.148545e-21 -1.771146e-20 -1.107793e-20
0.140000    1.797337e-01 1.797337e-01 1.797337e-01   -6.185981e-21 -1.781625e-20 -1.114630e-20
0.150000    1.807803e-01 1.807803e-01 1.807803e-01   -6.223771e-21 -1.792199e-20 -1.121532e-20
0.160000    1.818364e-01 1.818364e-01 1.818364e-01   -6.261920e-21 -1.802870e-20 -1.128501e-20
0.170000    1.829022e-01 1.829022e-01 1.829022e-01   -6.300433e-21 -1.813638e-20 -1.135538e-20
0.180000    1.839778e-01 1.839778e-01 1.839778e-01   -6.339315e-21 -1.824504e-20 -1.142643e-20
0.190000    1.850634e-01 1.850634e-01 1.850634e-01   -6.378570e-21 -1.835471e-20 -1.149817e-20
0.200000    1.861590e-01 1.861590e-01 1.861590e-01   -6.418204e-21 -1.846539e-20 -1.157062e-20
0.210000    1.872648e-01 1.872648e-01 1.872648e-01   -6.458222e-21 -1.857709e-20 -1.164379e-20
0.220000    1.883809e-01 1.883809e-01 1.883809e-01   -6.498628e-21 -1.868983e-20 -1.171767e-20
0.230000    1.895075e-01 1.895075e-01 1.895075e-01   -6.539428e-21 -1.880362e-20 -1.179229e-20
0.240000    1.906447e-01 1.906447e-01 1.906447e-01   -6.580627e-21 -1.891848e-20 -1.186765e-20
0.250000    1.917926e-01 1.917926e-01 1.917926e-01   -6.622232e-21 -1.903441e-20 -1.194377e-20
0.260000    1.929514e-01 1.929514e-01 1.929514e-01   -6.664246e-21 -1.915144e-20 -1.202065e-20
0.270000    1.941212e-01 1.941212e-01 1.941212e-01   -6.706676e-21 -1.926956e-20 -1.209831e-20
0.280000    1.953022e-01 1.953022e-01 1.953022e-01   -6.749527e-21 -1.938881e-20 -1.217675e-20
0.290000    1.964945e-01 1.964945e-01 1.964945e-01   -6.792806e-21 -1.950920e-20 -1.225598e-20
0.300000    1.976982e-01 1.976982e-01 1.976982e-01   -6.836518e-21 -1.963073e-20 -1.233603e-20
0.310000    1.989135e-01 1.989135e-01 1.989135e-01   -6.880669e-21 -1.975342e-20 -1.241689e-20
0.320000    2.001406e-01 2.001406e-01 2.001406e-01   -6.925265e-21 -1.987730e-20 -1.249859e-20
0.330000    2.013797e-01 2.013797e-01 2.013797e-01   -6.970313e-21 -2.000237e-20 -1.258113e-20
0.340000    2.026308e-01 2.026308e-01 2.026308e-01   -7.015818e-21 -2.012865e-20 -1.266452e-20
0.350000    2.038942e-01 2.038942e-01 2.038942e-01   -7.061788e-21 -2.025616e-20 -1.274878e-20
0.360000    2.051700e-01 2.051700e-01 2.051700e-01   -7.108229e-21 -2.038491e-20 -1.283392e-20
0.370000    2.064584e-01 2.064584e-01 2.064584e-01   -7.155147e-21 -2.051492e-20 -1.291996e-20
0.380000    2.077595e-01 2.077595e-01 2.077595e-01   -7.202549e-21 -2.064620e-20 -1.300689e-20
0.390000    2.090736e-01 2.090736e-01 2.090736e-01   -7.250443e-21 -2.077878e-20 -1.309475e-20
0.400000    2.104008e-01 2.104008e-01 2.104008e-01   -7.298836e-21 -2.091267e-20 -1.318354e-20
0.410000    2.117413e-01 2.117413e-01 2.117413e-01   -7.347733e-21 -2.104789e-20 -1.327328e-20
0.420000    2.130952e-01 2.130952e-01 2.130952e-01   -7.397144e-21 -2.118445e-20 -1.336398e-20
0.430000    2.144629e-01 2.144629e-01 2.144629e-01   -7.447075e-21 -2.132238e-20 -1.345565e-20
0.440000    2.158444e-01 2.158444e-01 2.158444e-01   -7.497535e-21 -2.146169e-20 -1.354832e-20
0.450000    2.172399e-01 2.172399e-01 2.172399e-01   -7.548530e-21 -2.160241e-20 -1.364199e-20
0.460000    2.186497e-01 2.186497e-01 2.186497e-01   -7.600068e-21 -2.174455e-20 -1.373667e-20
0.470000    2.200740e-01 2.200740e-01 2.200740e-01   -7.652159e-21 -2.188813e-20 -1.383240e-20
0.480000    2.215130e-01 2.215130e-01 2.215130e-01   -7.704810e-21 -2.203317e-20 -1.392917e-20
0.490000    2.229668e-01 2.229668e-01 2.229668e-01   -7.758029e-21 -2.217970e-20 -1.402701e-20
0.500000    2.244357e-01 2.244357e-01 2.244357e-01   -7.811824e-21 -2.232772e-20 -1.412594e-20
0.510000    2.259199e-01 2.259199e-01 2.259199e-01   -7.866206e-21 -2.247728e-20 -1.422597e-20
0.520000    2.274197e-01 2.274197e-01 2.274197e-01   -7.921182e-21 -2.262837e-20 -1.432711e-20
0.530000    2.289352e-01 2.289352e-01 2.289352e-01   -7.976762e-21 -2.278104e-20 -1.442939e-20
0.540000    2.304667e-01 2.304667e-01 2.304667e-01   -8.032954e-21 -2.293530e-20 -1.453283e-20
0.550000    2.320144e-01 2.320144e-01 2.320144e-01   -8.089769e-21 -2.309117e-20 -1.463743e-20
0.560000    2.335786e-01 2.335786e-01 2.335786e-01   -8.147216e-21 -2.324867e-20 -1.474323e-20
0.570000    2.351595e-01 2.351595e-01 2.351595e-01   -8.205304e-21 -2.340784e-20 -1.485023e-20
0.580000    2.367574e-01 2.367574e-01 2.367574e-01   -8.264045e-21 -2.356869e-20 -1.495847e-20
0.590000    2.383724e-01 2.383724e-01 2.383724e-01   -8.323447e-21 -2.373125e-20 -1.506795e-20
0.600000    2.400050e-01 2.400050e-01 2.400050e-01   -8.383521e-21 -2.389554e-20 -1.517870e-20
0.610000    2.416553e-01 2.416553e-01 2.416553e-01   -8.444279e-21 -2.406159e-20 -1.529075e-20
0.620000    2.433236e-01 2.433236e-01 2.433236e-01   -8.505731e-21 -2.422942e-20 -1.540410e-20
0.630000    2.450101e-01 2.450101e-01 2.450101e-01   -8.567887e-21 -2.439907e-20 -1.551878e-20
0.640000    2.467152e-01 2.467152e-01 2.467152e-01   -8.630760e-21 -2.457055e-20 -1.563482e-20
0.650000    2.484392e-01 2.484392e-01 2.484392e-01   -8.694361e-21 -2.474390e-20 -1.575224e-20
0.660000    2.501823e-01 2.501823e-01 2.501823e-01   -8.758701e-21 -2.491915e-20 -1.587105e-20
0.670000    2.519449e-01 2.519449e-01 2.519449e-01   -8.823794e-21 -2.509631e-20 -1.599129e-20
0.680000    2.537271e-01 2.537271e-01 2.537271e-01   -8.889650e-21 -2.527543e-20 -1.611298e-20
0.690000    2.555295e-01 2.555295e-01 2.555295e-01   -8.956283e-21 -2.545653e-20 -1.623614e-20
0.700000    2.573522e-01 2.573522e-01 2.573522e-01   -9.023705e-21 -2.563964e-20 -1.636080e-20
0.710000    2.591955e-01 2.591955e-01 2.591955e-01   -9.091931e-21 -2.582479e-20 -1.648698e-20
0.720000    2.610599e-01 2.610599e-01 2.610599e-01   -9.160972e-21 -2.601201e-20 -1.661471e-20
0.730000    2.629457e-01 2.629457e-01 2.629457e-01   -9.230843e-21 -2.620134e-20 -1.674402e-20
0.740000    2.648531e-01 2.648531e-01 2.648531e-01   -9.301558e-21 -2.639281e-20 -1.687493e-20
0.750000    2.667825e-01 2.667825e-01 2.667825e-01   -9.373131e-21 -2.658645e-20 -1.700747e-20
0.760000    2.687344e-01 2.687344e-01 2.687344e-01   -9.445577e-21 -2.678229e-20 -1.714167e-20
0.770000    2.707090e-01 2.707090e-01 2.707090e-01   -9.518910e-21 -2.698038e-20 -1.727757e-20
0.780000    2.727068e-01 2.727068e-01 2.727068e-01   -9.593147e-21 -2.718074e-20 -1.741518e-20
0.790000    2.747281e-01 2.747281e-01 2.747281e-01   -9.668303e-21 -2.738342e-20 -1.755455e-20
0.800000    2.767733e-01 2.767733e-01 2.767733e-01   -9.744394e-21 -2.758844e-20 -1.769570e-20
0.810000    2.788427e-01 2.788427e-01 2.788427e-01   -9.821435e-21 -2.779585e-20 -1.783866e-20
0.820000    2.809369e-01 2.809369e-01 2.809369e-01   -9.899445e-21 -2.800569e-20 -1.798347e-20
0.830000    2.830562e-01 2.830562e-01 2.830562e-01   -9.978440e-21 -2.821799e-20 -1.813017e-20
0.840000    2.852011e-01 2.852011e-01 2.852011e-01   -1.005844e-20 -2.843279e-20 -1.827878e-20
0.850000    2.873719e-01 2.873719e-01 2.873719e-01   -1.013946e-20 -2.865015e-20 -1.842935e-20
0.860000    2.895692e-01 2.895692e-01 2.895692e-01   -1.022151e-20 -2.887009e-20 -1.858191e-20
0.870000    2.917933e-01 2.917933e-01 2.917933e-01   -1.030463e-20 -2.909266e-20 -1.873649e-20
0.880000    2.940448e-01 2.940448e-01 2.940448e-01   -1.038882e-20 -2.931790e-20 -1.889314e-20
0.890000    2.963241e-01 2.963241e-01 2.963241e-01   -1.047411e-20 -2.954587e-20 -1.905190e-20
0.900000    2.986316e-01 2.986316e-01 2.986316e-01   -1.056052e-20 -2.977660e-20 -1.921280e-20
0.910000    3.009680e-01 3.009680e-01 3.009680e-01   -1.064807e-20 -3.001014e-20 -1.937588e-20
0.920000    3.033336e-01 3.033336e-01 3.033336e-01   -1.073678e-20 -3.024654e-20 -1.954120e-20
0.930000    3.057291e-01 3.057291e-01 3.057291e-01   -1.082666e-20 -3.048584e-20 -1.970879e-20
0.940000    3.081548e-01 3.081548e-01 3.081548e-01   -1.091775e-20 -3.072811e-20 -1.987869e-20
0.950000    3.106115e-01 3.106115e-01 3.106115e-01   -1.101007e-20 -3.097339e-20 -2.005096e-20
0.960000    3.130996e-01 3.130996e-01 3.130996e-01   -1.110364e-20 -3.122172e-20 -2.022564e-20
0.970000    3.156197e-01 3.156197e-01 3.156197e-01   -1.119848e-20 -3.147317e-20 -2.040277e-20
0.980000    3.181724e-01 3.181724e-01 3.181724e-01   -1.129462e-20 -3.172779e-20 -2.058242e-20
0.990000    3.207583e-01 3.207583e-01 3.207583e-01   -1.139209e-20 -3.198563e-20 -2.076462e-20
1.000000    3.233779e-01 3.233779e-01 3.233779e-01   -1.149090e-20 -3.224676e-20 -2.094944e-20
1.010000    3.260320e-01 3.260320e-01 3.260320e-01   -1.159109e-20 -3.251123e-20 -2.113692e-20
1.020000    3.287211e-01 3.287211e-01 3.287211e-01   -1.169269e-20 -3.277909e-20 -2.132712e-20
1.030000    3.314460e-01 3.314460e-01 3.314460e-01   -1.179572e-20 -3.305042e-20 -2.152009e-20
1.040000    3.342072e-01 3.342072e-01 3.342072e-01   -1.190021e-20 -3.332527e-20 -2.171590e-20
1.050000    3.370054e-01 3.370054e-01 3.370054e-01   -1.200619e-20 -3.360371e-20 -2.191461e-20
1.060000    3.398415e-01 3.398415e-01 3.398415e-01   -1.211369e-20 -3.388580e-20 -2.211627e-20
1.070000    3.427160e-01 3.427160e-01 3.427160e-01   -1.222274e-20 -3.417162e-20 -2.232096e-20
1.080000    3.456297e-01 3.456297e-01 3.456297e-01   -1.233338e-20 -3.446122e-20 -2.252872e-20
1.090000    3.485835e-01 3.485835e-01 3.485835e-01   -1.244564e-20 -3.475469e-20 -2.273964e-20
1.100000    3.515780e-01 3.515780e-01 3.515780e-01   -1.255955e-20 -3.505209e-20 -2.295378e-20
1.110000    3.546140e-01 3.546140e-01 3.546140e-01   -1.267515e-20 -3.535349e-20 -2.317121e-20
1.120000    3.576925e-01 3.576925e-01 3.576925e-01   -1.279247e-20 -3.565898e-20 -2.339201e-20
1.130000    3.608142e-01 3.608142e-01 3.608142e-01   -1.291155e-20 -3.596863e-20 -2.361625e-20
1.140000    3.639799e-01 3.639799e-01 3.639799e-01   -1.303242e-20 -3.628252e-20 -2.384400e-20
1.150000    3.671906e-01 3.671906e-01 3.671906e-01   -1.315513e-20 -3.660074e-20 -2.407535e-20
1.160000    3.704472e-01 3.704472e-01 3.704472e-01   -1.327972e-20 -3.692336e-20 -2.431038e-20
1.170000    3.737506e-01 3.737506e-01 3.737506e-01   -1.340623e-20 -3.725047e-20 -2.454918e-20
1.180000    3.771018e-01 3.771018e-01 3.771018e-01   -1.353470e-20 -3.758217e-20 -2.479183e-20
1.190000    3.805017e-01 3.805017e-01 3.805017e-01   -1.366518e-20 -3.791854e-20 -2.503842e-20
1.200000    3.839514e-01 3.839514e-01 3.839514e-01   -1.379770e-20 -3.825968e-20 -2.528904e-20
1.210000    3.874518e-01 3.874518e-01 3.874518e-01   -1.393232e-20 -3.860568e-20 -2.554380e-20
1.220000    3.910042e-01 3.910042e-01 3.910042e-01   -1.406909e-20 -3.895663e-20 -2.580279e-20
1.230000    3.946094e-01 3.946094e-01 3.946094e-01   -1.420805e-20 -3.931265e-20 -2.606610e-20
1.240000    3.982688e-01 3.982688e-01 3.982688e-01   -1.434925e-20 -3.967384e-20 -2.633386e-20
1.250000    4.019834e-01 4.019834e-01 4.019834e-01   -1.449276e-20 -4.004029e-20 -2.660616e-20
1.260000    4.057544e-01 4.057544e-01 4.057544e-01   -1.463861e-20 -4.041213e-20 -2.688312e-20
1.270000    4.095830e-01 4.095830e-01 4.095830e-01   -1.478688e-20 -4.078946e-20 -2.716485e-20
1.280000    4.134706e-01 4.134706e-01 4.134706e-01   -1.493761e-20 -4.117240e-20 -2.745148e-20
1.290000    4.174183e-01 4.174183e-01 4.174183e-01   -1.509087e-20 -4.156106e-20 -2.774312e-20
1.300000    4.214276e-01 4.214276e-01 4.214276e-01   -1.524672e-20 -4.195558e-20 -2.803991e-20
1.310000    4.254998e-01 4.254998e-01 4.254998e-01   -1.540521e-20 -4.235607e-20 -2.834199e-20
1.320000    4.296364e-01 4.296364e-01 4.296364e-01   -1.556643e-20 -4.276267e-20 -2.864948e-20
1.330000    4.338387e-01 4.338387e-01 4.338387e-01   -1.573043e-20 -4.317551e-20 -2.896252e-20
1.340000    4.381082e-01 4.381082e-01 4.381082e-01   -1.589729e-20 -4.359472e-20 -2.928128e-20
1.350000    4.424466e-01 4.424466e-01 4.424466e-01   -1.606708e-20 -4.402045e-20 -2.960589e-20
1.360000    4.468554e-01 4.468554e-01 4.468554e-01   -1.623987e-20 -4.445285e-20 -2.993651e-20
1.370000    4.513362e-01 4.513362e-01 4.513362e-01   -1.641575e-20 -4.489206e-20 -3.027332e-20
1.380000    4.558908e-01 4.558908e-01 4.558908e-01   -1.659479e-20 -4.533823e-20 -3.061647e-20
1.390000    4.605208e-01 4.605208e-01 4.605208e-01   -1.677707e-20 -4.579154e-20 -3.096615e-20
1.400000    4.652282e-01 4.652282e-01 4.652282e-01   -1.696269e-20 -4.625213e-20 -3.132254e-20
1.410000    4.700146e-01 4.700146e-01 4.700146e-01   -1.715174e-20 -4.672019e-20 -3.168582e-20
1.420000    4.748821e-01 4.748821e-01 4.748821e-01   -1.734430e-20 -4.719588e-20 -3.205619e-20
1.430000    4.798326e-01 4.798326e-01 4.798326e-01   -1.754047e-20 -4.767939e-20 -3.243385e-20
1.440000    4.848681e-01 4.848681e-01 4.848681e-01   -1.774036e-20 -4.817090e-20 -3.281902e-20
1.450000    4.899909e-01 4.899909e-01 4.899909e-01   -1.794407e-20 -4.867060e-20 -3.321192e-20
1.460000    4.952029e-01 4.952029e-01 4.952029e-01   -1.815170e-20 -4.917870e-20 -3.361277e-20
1.470000    5.005065e-01 5.005065e-01 5.005065e-01   -1.836337e-20 -4.969540e-20 -3.402181e-20
1.480000    5.059041e-01 5.059041e-01 5.059041e-01   -1.857919e-20 -5.022090e-20 -3.443929e-20
1.490000    5.113979e-01 5.113979e-01 5.113979e-01   -1.879929e-20 -5.075544e-20 -3.486546e-20
1.500000    5.169905e-01 5.169905e-01 5.169905e-01   -1.902378e-20 -5.129923e-20 -3.530060e-20
1.510000    5.226845e-01 5.226845e-01 5.226845e-01   -1.925281e-20 -5.185251e-20 -3.574497e-20
1.520000    5.284825e-01 5.284825e-01 5.284825e-01   -1.948651e-20 -5.241552e-20 -3.619887e-20
1.530000    5.343873e-01 5.343873e-01 5.343873e-01   -1.972502e-20 -5.298852e-20 -3.666261e-20
1.540000    5.404016e-01 5.404016e-01 5.404016e-01   -1.996848e-20 -5.357177e-20 -3.713649e-20
1.550000    5.465285e-01 5.465285e-01 5.465285e-01   -2.021705e-20 -5.416552e-20 -3.762084e-20
1.560000    5.527711e-01 5.527711e-01 5.527711e-01   -2.047090e-20 -5.477007e-20 -3.811602e-20
1.570000    5.591324e-01 5.591324e-01 5.591324e-01   -2.073018e-20 -5.538570e-20 -3.862236e-20
1.580000    5.656157e-01 5.656157e-01 5.656157e-01   -2.099508e-20 -5.601271e-20 -3.914025e-20
1.590000    5.722246e-01 5.722246e-01 5.722246e-01   -2.126576e-20 -5.665142e-20 -3.967008e-20
1.600000    5.789624e-01 5.789624e-01 5.789624e-01   -2.154244e-20 -5.730214e-20 -4.021226e-20
1.610000    5.858329e-01 5.858329e-01 5.858329e-01   -2.182529e-20 -5.796521e-20 -4.076720e-20
1.620000    5.928398e-01 5.928398e-01 5.928398e-01   -2.211454e-20 -5.864099e-20 -4.133536e-20
1.630000    5.999871e-01 5.999871e-01 5.999871e-01   -2.241039e-20 -5.932983e-20 -4.191720e-20
1.640000    6.072790e-01 6.072790e-01 6.072790e-01   -2.271308e-20 -6.003211e-20 -4.251322e-20
1.650000    6.147196e-01 6.147196e-01 6.147196e-01   -2.302284e-20 -6.074822e-20 -4.312391e-20
1.660000    6.223134e-01 6.223134e-01 6.223134e-01   -2.333992e-20 -6.147857e-20 -4.374983e-20
1.670000    6.300650e-01 6.300650e-01 6.300650e-01   -2.366458e-20 -6.222358e-20 -4.439152e-20
1.680000    6.379792e-01 6.379792e-01 6.379792e-01   -2.399709e-20 -6.298371e-20 -4.504959e-20
1.690000    6.460610e-01 6.460610e-01 6.460610e-01   -2.433775e-20 -6.375939e-20 -4.572464e-20
1.700000    6.543156e-01 6.543156e-01 6.543156e-01   -2.468685e-20 -6.455113e-20 -4.641734e-20
1.710000    6.627484e-01 6.627484e-01 6.627484e-01   -2.504471e-20 -6.535942e-20 -4.712836e-20
1.720000    6.713650e-01 6.713650e-01 6.713650e-01   -2.541166e-20 -6.618478e-20 -4.785843e-20
1.730000    6.801713e-01 6.801713e-01 6.801713e-01   -2.578805e-20 -6.702776e-20 -4.860829e-20
1.740000    6.891735e-01 6.891735e-01 6.891735e-01   -2.617425e-20 -6.788893e-20 -4.937875e-20
1.750000    6.983779e-01 6.983779e-01 6.983779e-01   -2.657065e-20 -6.876888e-20 -5.017065e-20
1.760000    7.077913e-01 7.077913e-01 7.077913e-01   -2.697765e-20 -6.966825e-20 -5.098486e-20
1.770000    7.174205e-01 7.174205e-01 7.174205e-01   -2.739568e-20 -7.058769e-20 -5.182232e-20
1.780000    7.272730e-01 7.272730e-01 7.272730e-01   -2.782521e-20 -7.152788e-20 -5.268401e-20
1.790000    7.373563e-01 7.373563e-01 7.373563e-01   -2.826670e-20 -7.248954e-20 -5.357098e-20
1.800000    7.476784e-01 7.476784e-01 7.476784e-01   -2.872066e-20 -7.347342e-20 -5.448431e-20
1.810000    7.582477e-01 7.582477e-01 7.582477e-01   -2.918763e-20 -7.448032e-20 -5.542517e-20
1.820000    7.690729e-01 7.690729e-01 7.690729e-01   -2.966818e-20 -7.551106e-20 -5.639478e-20
1.830000    7.801631e-01 7.801631e-01 7.801631e-01   -3.016290e-20 -7.656652e-20 -5.739445e-20
1.840000    7.915280e-01 7.915280e-01 7.915280e-01   -3.067243e-20 -7.764761e-20 -5.842555e-20
1.850000    8.031777e-01 8.031777e-01 8.031777e-01   -3.119744e-20 -7.875531e-20 -5.948954e-20
1.860000    8.151227e-01 8.151227e-01 8.151227e-01   -3.173865e-20 -7.989062e-20 -6.058797e-20
1.870000    8.273741e-01 8.273741e-01 8.273741e-01   -3.229681e-20 -8.105462e-20 -6.172247e-20
1.880000    8.399437e-01 8.399437e-01 8.399437e-01   -3.287273e-20 -8.224845e-20 -6.289481e-20
1.890000    8.528436e-01 8.528436e-01 8.528436e-01   -3.346728e-20 -8.347329e-20 -6.410682e-20
1.900000    8.660869e-01 8.660869e-01 8.660869e-01   -3.408135e-20 -8.473041e-20 -6.536050e-20
1.910000    8.796870e-01 8.796870e-01 8.796870e-01   -3.471593e-20 -8.602115e-20 -6.665794e-20
1.920000    8.936584e-01 8.936584e-01 8.936584e-01   -3.537206e-20 -8.734691e-20 -6.800140e-20
1.930000    9.080162e-01 9.080162e-01 9.080162e-01   -3.605084e-20 -8.870920e-20 -6.939325e-20
1.940000    9.227763e-01 9.227763e-01 9.227763e-01   -3.675345e-20 -9.010960e-20 -7.083605e-20
1.950000    9.379555e-01 9.379555e-01 9.379555e-01   -3.748116e-20 -9.154980e-20 -7.233255e-20
1.960000    9.535718e-01 9.535718e-01 9.535718e-01   -3.823534e-20 -9.303160e-20 -7.388564e-20
1.970000    9.696438e-01 9.696438e-01 9.696438e-01   -3.901742e-20 -9.455688e-20 -7.549848e-20
1.980000    9.861915e-01 9.861915e-01 9.861915e-01   -3.982898e-20 -9.612769e-20 -7.717439e-20
1.990000    1.003236e+00 1.003236e+00 1.003236e+00   -4.067167e-20 -9.774618e-20 -7.891698e-20
2.000000    1.020800e+00 1.020800e+00 1.020800e+00   -4.154731e-20 -9.941466e-20 -8.073010e-20
2.010000    1.038907e+00 1.038907e+00 1.038907e+00   -4.245782e-20 -1.011356e-19 -8.261790e-20
2.020000    1.057582e+00 1.057582e+00 1.057582e+00   -4.340530e-20 -1.029116e-19 -8.458483e-20
2.030000    1.076852e+00 1.076852e+00 1.076852e+00   -4.439199e-20 -1.047455e-19 -8.663571e-20
2.040000    1.096746e+00 1.096746e+00 1.096746e+00   -4.542031e-20 -1.066404e-19 -8.877569e-20
2.050000    1.117294e+00 1.117294e+00 1.117294e+00   -4.649290e-20 -1.085994e-19 -9.101037e-20
2.060000    1.138528e+00 1.138528e+00 1.138528e+00   -4.761259e-20 -1.106261e-19 -9.334579e-20
2.070000    1.160484e+00 1.160484e+00 1.160484e+00   -4.878246e-20 -1.127242e-19 -9.578847e-20
2.080000    1.183198e+00 1.183198e+00 1.183198e+00   -5.000585e-20 -1.148978e-19 -9.834547e-20
