
  &&electric field:  1.000000e-06  0.000000e+00  0.000000e+00 
  &&dipole at groud state:   -9.8624149558e-07   -5.0479058200e-06   -5.1980630928e-06 
  0.000000    2.6745282231e-04   -5.0564945195e-06   -5.1787654343e-06 
  1.000000    7.9051623471e-04   -5.0563117111e-06   -5.1797317724e-06 
  2.000000    1.2689730647e-03   -5.0572102919e-06   -5.1798386380e-06 
  3.000000    1.6776939883e-03   -5.0583824032e-06   -5.1785039545e-06 
  4.000000    1.9984948303e-03   -5.0607196909e-06   -5.1768964227e-06 
  5.000000    2.2210887109e-03   -5.0639809115e-06   -5.1736595310e-06 
  6.000000    2.3438879725e-03   -5.0686562827e-06   -5.1705190458e-06 
  7.000000    2.3734947026e-03   -5.0739687549e-06   -5.1669897516e-06 
  8.000000    2.3228005302e-03   -5.0802206215e-06   -5.1630534585e-06 
  9.000000    2.2094844462e-03   -5.0877789772e-06   -5.1593727335e-06 
  10.000000    2.0540980331e-03   -5.0968924552e-06   -5.1565437502e-06 
  11.000000    1.8769727612e-03   -5.1078600518e-06   -5.1553568596e-06 
  12.000000    1.6960450012e-03   -5.1216949442e-06   -5.1572695270e-06 
  13.000000    1.5252430603e-03   -5.1396376830e-06   -5.1628210826e-06 
  14.000000    1.3736226392e-03   -5.1621573403e-06   -5.1726322567e-06 
  15.000000    1.2452552765e-03   -5.1886135179e-06   -5.1872000881e-06 
  16.000000    1.1397849303e-03   -5.2190203133e-06   -5.2081880426e-06 
  17.000000    1.0534900939e-03   -5.2541938840e-06   -5.2344246910e-06 
  18.000000    9.8059092125e-04   -5.2930925176e-06   -5.2674730000e-06 
  19.000000    9.1460846307e-04   -5.3355543241e-06   -5.3063429846e-06 
  20.000000    8.4953679471e-04   -5.3810311056e-06   -5.3514921206e-06 
  21.000000    7.8069328448e-04   -5.4276171295e-06   -5.4009081509e-06 
  22.000000    7.0518258145e-04   -5.4748571938e-06   -5.4525256132e-06 
  23.000000    6.2196244836e-04   -5.5207549576e-06   -5.5041826386e-06 
  24.000000    5.3159815435e-04   -5.5654916378e-06   -5.5543922031e-06 
  25.000000    4.3580109196e-04   -5.6072472217e-06   -5.6006018099e-06 
  26.000000    3.3687395626e-04   -5.6458129802e-06   -5.6402230371e-06 
  27.000000    2.3718363082e-04   -5.6794165357e-06   -5.6712077026e-06 
  28.000000    1.3875044534e-04   -5.7069504646e-06   -5.6928909657e-06 
  29.000000    4.2978790596e-05   -5.7276891039e-06   -5.7045420476e-06 
  30.000000   -4.9431342624e-05   -5.7401943150e-06   -5.7058903735e-06 
  31.000000   -1.3841349573e-04   -5.7443626429e-06   -5.6978745420e-06 
  32.000000   -2.2439107124e-04   -5.7386961498e-06   -5.6819156384e-06 
  33.000000   -3.0805593996e-04   -5.7247092582e-06   -5.6593883642e-06 
  34.000000   -3.9015119545e-04   -5.7016516348e-06   -5.6324386719e-06 
  35.000000   -4.7128228470e-04   -5.6704989402e-06   -5.6012793834e-06 
  36.000000   -5.5177185276e-04   -5.6323786066e-06   -5.5671769701e-06 
  37.000000   -6.3157969270e-04   -5.5888166526e-06   -5.5309331515e-06 
  38.000000   -7.1026349905e-04   -5.5416679925e-06   -5.4926297821e-06 
  39.000000   -7.8700130688e-04   -5.4926804478e-06   -5.4517539070e-06 
  40.000000   -8.6062234185e-04   -5.4413722137e-06   -5.4092955111e-06 
  41.000000   -9.2968458193e-04   -5.3909071949e-06   -5.3645342746e-06 
  42.000000   -9.9255976965e-04   -5.3407918768e-06   -5.3181609587e-06 
  43.000000   -1.0475486779e-03   -5.2916996265e-06   -5.2700291349e-06 
  44.000000   -1.0929933778e-03   -5.2443166578e-06   -5.2212770356e-06 
  45.000000   -1.1274061690e-03   -5.1983837648e-06   -5.1725353956e-06 
  46.000000   -1.1495957442e-03   -5.1531682357e-06   -5.1252016533e-06 
  47.000000   -1.1587594345e-03   -5.1093560569e-06   -5.0802048577e-06 
  48.000000   -1.1545594316e-03   -5.0664947548e-06   -5.0396209303e-06 
  49.000000   -1.1371381552e-03   -5.0253803647e-06   -5.0034225865e-06 
  50.000000   -1.1070815235e-03   -4.9861717071e-06   -4.9733483252e-06 
  51.000000   -1.0653498321e-03   -4.9491220762e-06   -4.9490388960e-06 
  52.000000   -1.0131503659e-03   -4.9145397907e-06   -4.9312919259e-06 
  53.000000   -9.5179544586e-04   -4.8826697321e-06   -4.9201592560e-06 
  54.000000   -8.8258259347e-04   -4.8535747692e-06   -4.9157964099e-06 
  55.000000   -8.0667932342e-04   -4.8287033860e-06   -4.9181488180e-06 
  56.000000   -7.2506457217e-04   -4.8078380996e-06   -4.9268699627e-06 
  57.000000   -6.3851270533e-04   -4.7909890282e-06   -4.9409434837e-06 
  58.000000   -5.4763350635e-04   -4.7789422024e-06   -4.9602334116e-06 
  59.000000   -4.5294755545e-04   -4.7717268399e-06   -4.9834982860e-06 
  60.000000   -3.5495418705e-04   -4.7695620151e-06   -5.0099473015e-06 
  61.000000   -2.5423387705e-04   -4.7715804112e-06   -5.0381734695e-06 
  62.000000   -1.5148738748e-04   -4.7782264301e-06   -5.0672536531e-06 
  63.000000   -4.7574634657e-05   -4.7882852141e-06   -5.0960059639e-06 
  64.000000    5.6512973977e-05   -4.8032453788e-06   -5.1240347716e-06 
  65.000000    1.5968916706e-04   -4.8213153332e-06   -5.1511254355e-06 
  66.000000    2.6083699778e-04   -4.8428676291e-06   -5.1774766803e-06 
  67.000000    3.5886879778e-04   -4.8664180849e-06   -5.2030316624e-06 
  68.000000    4.5278303151e-04   -4.8913141382e-06   -5.2280736895e-06 
  69.000000    5.4168539646e-04   -4.9183563715e-06   -5.2537641864e-06 
  70.000000    6.2479394547e-04   -4.9460934588e-06   -5.2795706438e-06 
  71.000000    7.0142924961e-04   -4.9747614139e-06   -5.3050928841e-06 
  72.000000    7.7097756731e-04   -5.0035306640e-06   -5.3296474221e-06 
  73.000000    8.3287850430e-04   -5.0336485811e-06   -5.3523902466e-06 
  74.000000    8.8660305483e-04   -5.0649752166e-06   -5.3715201034e-06 
  75.000000    9.3166332227e-04   -5.0976488137e-06   -5.3859224067e-06 
  76.000000    9.6764054616e-04   -5.1321533374e-06   -5.3940182738e-06 
  77.000000    9.9421599590e-04   -5.1679806075e-06   -5.3953002066e-06 
  78.000000    1.0112117743e-03   -5.2050264867e-06   -5.3901179058e-06 
  79.000000    1.0186166910e-03   -5.2430216511e-06   -5.3785495879e-06 
  80.000000    1.0165948188e-03   -5.2807820521e-06   -5.3625929581e-06 
  81.000000    1.0054632439e-03   -5.3182792681e-06   -5.3443034744e-06 
  82.000000    9.8565645749e-04   -5.3543234526e-06   -5.3269589557e-06 
  83.000000    9.5766482992e-04   -5.3886983733e-06   -5.3132401376e-06 
  84.000000    9.2197336199e-04   -5.4207230460e-06   -5.3055976537e-06 
  85.000000    8.7900811923e-04   -5.4496516850e-06   -5.3051024338e-06 
  86.000000    8.2910814672e-04   -5.4766991480e-06   -5.3134361337e-06 
  87.000000    7.7252222400e-04   -5.5008673780e-06   -5.3291844893e-06 
  88.000000    7.0943716856e-04   -5.5230132330e-06   -5.3508322821e-06 
  89.000000    6.4004237357e-04   -5.5423161212e-06   -5.3759625303e-06 
  90.000000    5.6458465406e-04   -5.5598940389e-06   -5.4014183775e-06 
  91.000000    4.8345625692e-04   -5.5755213180e-06   -5.4236955407e-06 
  92.000000    3.9724115050e-04   -5.5885957591e-06   -5.4398940961e-06 
  93.000000    3.0674984738e-04   -5.5989311432e-06   -5.4483028293e-06 
  94.000000    2.1301269590e-04   -5.6061459373e-06   -5.4481495795e-06 
  95.000000    1.1724376237e-04   -5.6094152296e-06   -5.4396435303e-06 
  96.000000    2.0778607002e-05   -5.6087891562e-06   -5.4239483802e-06 
  97.000000   -7.5023024685e-05   -5.6038251341e-06   -5.4049012874e-06 
  98.000000   -1.6886329103e-04   -5.5960163263e-06   -5.3851434245e-06 
  99.000000   -2.5960041966e-04   -5.5848106695e-06   -5.3668589430e-06 
  100.000000   -3.4631384187e-04   -5.5702876307e-06   -5.3516117191e-06 
  101.000000   -4.2835056956e-04   -5.5528068015e-06   -5.3397696433e-06 
  102.000000   -5.0532359455e-04   -5.5324637924e-06   -5.3307056191e-06 
  103.000000   -5.7708258100e-04   -5.5093286346e-06   -5.3228780530e-06 
  104.000000   -6.4365594880e-04   -5.4823696201e-06   -5.3130123092e-06 
  105.000000   -7.0515541301e-04   -5.4517908166e-06   -5.2987446111e-06 
  106.000000   -7.6167593942e-04   -5.4170793828e-06   -5.2777921269e-06 
  107.000000   -8.1318944284e-04   -5.3777171343e-06   -5.2496364447e-06 
  108.000000   -8.5944954480e-04   -5.3337216923e-06   -5.2132466521e-06 
  109.000000   -8.9994476001e-04   -5.2850083603e-06   -5.1703630675e-06 
  110.000000   -9.3387090600e-04   -5.2319324095e-06   -5.1242766972e-06 
  111.000000   -9.6016500901e-04   -5.1761989153e-06   -5.0778378977e-06 
  112.000000   -9.7758838091e-04   -5.1186422252e-06   -5.0348315312e-06 
  113.000000   -9.8485930356e-04   -5.0618363230e-06   -4.9996554594e-06 
  114.000000   -9.8080855968e-04   -5.0070934958e-06   -4.9742419037e-06 
  115.000000   -9.6455213497e-04   -4.9554972930e-06   -4.9607345431e-06 
  116.000000   -9.3564670532e-04   -4.9091634264e-06   -4.9587686703e-06 
  117.000000   -8.9419916912e-04   -4.8680972395e-06   -4.9677831271e-06 
  118.000000   -8.4092099859e-04   -4.8325956823e-06   -4.9848679851e-06 
  119.000000   -7.7710453478e-04   -4.8021687644e-06   -5.0073966236e-06 
  120.000000   -7.0451579813e-04   -4.7759756581e-06   -5.0326223686e-06 
  121.000000   -6.2522917869e-04   -4.7536167540e-06   -5.0574415695e-06 
  122.000000   -5.4141145664e-04   -4.7344941732e-06   -5.0805077194e-06 
  123.000000   -4.5510564814e-04   -4.7177551505e-06   -5.1010813991e-06 
  124.000000   -3.6802199610e-04   -4.7041939024e-06   -5.1191244097e-06 
  125.000000   -2.8140044014e-04   -4.6926866344e-06   -5.1348809507e-06 
  126.000000   -1.9594888726e-04   -4.6854135189e-06   -5.1505788292e-06 
  127.000000   -1.1187206837e-04   -4.6820218995e-06   -5.1665304568e-06 
  128.000000   -2.8970869600e-05   -4.6837930268e-06   -5.1842424114e-06 
  129.000000    5.3168318125e-05   -4.6911774416e-06   -5.2040471132e-06 
  130.000000    1.3497692999e-04   -4.7041718472e-06   -5.2248681754e-06 
  131.000000    2.1669907438e-04   -4.7218516284e-06   -5.2461462587e-06 
  132.000000    2.9822649959e-04   -4.7436677915e-06   -5.2660237202e-06 
  133.000000    3.7901033648e-04   -4.7691486498e-06   -5.2837161206e-06 
  134.000000    4.5804880211e-04   -4.7974975996e-06   -5.2976473057e-06 
  135.000000    5.3396231670e-04   -4.8274634037e-06   -5.3069714454e-06 
  136.000000    6.0512841447e-04   -4.8595390081e-06   -5.3111455713e-06 
  137.000000    6.6986966704e-04   -4.8930875391e-06   -5.3112233331e-06 
  138.000000    7.2664402251e-04   -4.9289669914e-06   -5.3084493743e-06 
  139.000000    7.7421714378e-04   -4.9675502578e-06   -5.3043625599e-06 
  140.000000    8.1177070388e-04   -5.0100375302e-06   -5.3013830552e-06 
  141.000000    8.3898588492e-04   -5.0557093982e-06   -5.3013548609e-06 
  142.000000    8.5599871819e-04   -5.1053767902e-06   -5.3069009596e-06 
  143.000000    8.6335286324e-04   -5.1585808660e-06   -5.3187421258e-06 
  144.000000    8.6186623958e-04   -5.2153725574e-06   -5.3373813103e-06 
  145.000000    8.5249503901e-04   -5.2739926741e-06   -5.3628289720e-06 
  146.000000    8.3620533406e-04   -5.3338866519e-06   -5.3930442050e-06 
  147.000000    8.1385113300e-04   -5.3938598694e-06   -5.4252503219e-06 
  148.000000    7.8610143101e-04   -5.4521679158e-06   -5.4568438941e-06 
  149.000000    7.5340540207e-04   -5.5089655189e-06   -5.4842474242e-06 
  150.000000    7.1599897638e-04   -5.5628496693e-06   -5.5048424770e-06 
  151.000000    6.7393615610e-04   -5.6140395555e-06   -5.5160688248e-06 
  152.000000    6.2715925743e-04   -5.6618014423e-06   -5.5166036077e-06 
  153.000000    5.7555844251e-04   -5.7064815064e-06   -5.5072303553e-06 
  154.000000    5.1904411522e-04   -5.7468493151e-06   -5.4894092614e-06 
  155.000000    4.5760038484e-04   -5.7830187825e-06   -5.4651271171e-06 
  156.000000    3.9132115490e-04   -5.8141765931e-06   -5.4377940728e-06 
  157.000000    3.2045369154e-04   -5.8389522519e-06   -5.4107279652e-06 
  158.000000    2.4539172592e-04   -5.8560068692e-06   -5.3871211207e-06 
  159.000000    1.6670105106e-04   -5.8651840118e-06   -5.3684560157e-06 
  160.000000    8.5102743476e-05   -5.8656810507e-06   -5.3568235785e-06 
  161.000000    1.4675315541e-06   -5.8575289086e-06   -5.3513643365e-06 
  162.000000   -8.3192368031e-05   -5.8406339076e-06   -5.3509764371e-06 
  163.000000   -1.6774864343e-04   -5.8159850096e-06   -5.3531778690e-06 
  164.000000   -2.5098258629e-04   -5.7848800634e-06   -5.3561819300e-06 
  165.000000   -3.3163178886e-04   -5.7488114362e-06   -5.3569509078e-06 
  166.000000   -4.0843282476e-04   -5.7084366927e-06   -5.3548267829e-06 
  167.000000   -4.8017958760e-04   -5.6644290862e-06   -5.3464316920e-06 
  168.000000   -5.4579880088e-04   -5.6171117149e-06   -5.3312690511e-06 
  169.000000   -6.0439265507e-04   -5.5658846532e-06   -5.3088309073e-06 
  170.000000   -6.5530141000e-04   -5.5106469472e-06   -5.2787980280e-06 
  171.000000   -6.9812206493e-04   -5.4511890721e-06   -5.2409880595e-06 
  172.000000   -7.3272381268e-04   -5.3872103263e-06   -5.1967361401e-06 
  173.000000   -7.5921129609e-04   -5.3192303722e-06   -5.1461755106e-06 
  174.000000   -7.7787885674e-04   -5.2482779620e-06   -5.0906022011e-06 
  175.000000   -7.8913541801e-04   -5.1762013027e-06   -5.0323054097e-06 
  176.000000   -7.9342063690e-04   -5.1034848139e-06   -4.9737253107e-06 
  177.000000   -7.9112933599e-04   -5.0326929295e-06   -4.9166754366e-06 
  178.000000   -7.8254398249e-04   -4.9661711228e-06   -4.8654545139e-06 
  179.000000   -7.6780864037e-04   -4.9050954840e-06   -4.8224767966e-06 
  180.000000   -7.4692885391e-04   -4.8507522661e-06   -4.7922256385e-06 
  181.000000   -7.1982003282e-04   -4.8031238475e-06   -4.7767214824e-06 
  182.000000   -6.8637503136e-04   -4.7639085961e-06   -4.7777860459e-06 
  183.000000   -6.4655141613e-04   -4.7308992817e-06   -4.7944416224e-06 
  184.000000   -6.0046238649e-04   -4.7053942080e-06   -4.8255081424e-06 
  185.000000   -5.4844252008e-04   -4.6860673319e-06   -4.8661034384e-06 
  186.000000   -4.9107630911e-04   -4.6724787990e-06   -4.9125367809e-06 
  187.000000   -4.2918829421e-04   -4.6643862288e-06   -4.9588127808e-06 
  188.000000   -3.6378002550e-04   -4.6615229121e-06   -5.0009760457e-06 
  189.000000   -2.9594241641e-04   -4.6640696110e-06   -5.0343726912e-06 
  190.000000   -2.2674261708e-04   -4.6705480554e-06   -5.0593692436e-06 
  191.000000   -1.5711683954e-04   -4.6817449584e-06   -5.0756437417e-06 
  192.000000   -8.7786247597e-05   -4.6957597033e-06   -5.0862443572e-06 
  193.000000   -1.9214552587e-05   -4.7127679363e-06   -5.0949186630e-06 
  194.000000    4.8392423203e-05   -4.7320715066e-06   -5.1066529636e-06 
  195.000000    1.1502117560e-04   -4.7520751605e-06   -5.1239397294e-06 
  196.000000    1.8076914422e-04   -4.7723858825e-06   -5.1510931485e-06 
  197.000000    2.4572922849e-04   -4.7934169243e-06   -5.1885734251e-06 
  198.000000    3.0989342486e-04   -4.8144054472e-06   -5.2346316011e-06 
  199.000000    3.7306270679e-04   -4.8359311404e-06   -5.2873031677e-06 
  200.000000    4.3480980094e-04   -4.8590025199e-06   -5.3416159176e-06 
  201.000000    4.9447671336e-04   -4.8841357239e-06   -5.3928468446e-06 
  202.000000    5.5120993057e-04   -4.9122379733e-06   -5.4380128063e-06 
  203.000000    6.0403584212e-04   -4.9442050067e-06   -5.4736831885e-06 
  204.000000    6.5192606417e-04   -4.9794407642e-06   -5.4979394122e-06 
  205.000000    6.9387553959e-04   -5.0187782290e-06   -5.5118528621e-06 
  206.000000    7.2895374615e-04   -5.0617923262e-06   -5.5162861941e-06 
  207.000000    7.5634029054e-04   -5.1077405669e-06   -5.5156249914e-06 
  208.000000    7.7533908189e-04   -5.1563781835e-06   -5.5123985589e-06 
  209.000000    7.8538146045e-04   -5.2077813462e-06   -5.5104149510e-06 
  210.000000    7.8603070870e-04   -5.2612994250e-06   -5.5127923702e-06 
  211.000000    7.7700195835e-04   -5.3177706332e-06   -5.5218905004e-06 
  212.000000    7.5818919868e-04   -5.3769748729e-06   -5.5389530758e-06 
  213.000000    7.2971283226e-04   -5.4387779937e-06   -5.5632838780e-06 
  214.000000    6.9196267578e-04   -5.5024728636e-06   -5.5940880088e-06 
  215.000000    6.4563455818e-04   -5.5675295880e-06   -5.6288548080e-06 
  216.000000    5.9173216869e-04   -5.6317905046e-06   -5.6647725728e-06 
  217.000000    5.3153376212e-04   -5.6936969668e-06   -5.6975630400e-06 
  218.000000    4.6651394224e-04   -5.7508073223e-06   -5.7230670905e-06 
  219.000000    3.9822461259e-04   -5.8009888062e-06   -5.7376590235e-06 
  220.000000    3.2815872692e-04   -5.8425201996e-06   -5.7373629829e-06 
  221.000000    2.5755733078e-04   -5.8748776337e-06   -5.7206914903e-06 
  222.000000    1.8750301388e-04   -5.8967066434e-06   -5.6866331875e-06 
  223.000000    1.1864074623e-04   -5.9092131051e-06   -5.6365532259e-06 
  224.000000    5.1094204544e-05   -5.9135781112e-06   -5.5745215946e-06 
  225.000000   -1.4764940708e-05   -5.9102735759e-06   -5.5040084703e-06 
  226.000000   -7.9207835363e-05   -5.9008135804e-06   -5.4318241496e-06 
  227.000000   -1.4262758486e-04   -5.8856874330e-06   -5.3648021208e-06 
  228.000000   -2.0484879496e-04   -5.8654660688e-06   -5.3087713354e-06 
  229.000000   -2.6553665520e-04   -5.8392614801e-06   -5.2657563288e-06 
  230.000000   -3.2454819301e-04   -5.8056891885e-06   -5.2378994155e-06 
  231.000000   -3.8139086973e-04   -5.7632670587e-06   -5.2229477774e-06 
  232.000000   -4.3505489884e-04   -5.7114593983e-06   -5.2167577564e-06 
  233.000000   -4.8484597936e-04   -5.6484425568e-06   -5.2122603051e-06 
  234.000000   -5.2983150817e-04   -5.5758125836e-06   -5.2033850011e-06 
  235.000000   -5.6925894750e-04   -5.4941456438e-06   -5.1838235891e-06 
  236.000000   -6.0259012388e-04   -5.4057914167e-06   -5.1491581985e-06 
  237.000000   -6.2950706342e-04   -5.3140584169e-06   -5.0972683425e-06 
  238.000000   -6.4983566698e-04   -5.2211545563e-06   -5.0295337246e-06 
  239.000000   -6.6353390866e-04   -5.1298703920e-06   -4.9499083730e-06 
  240.000000   -6.7085569025e-04   -5.0424175879e-06   -4.8652353257e-06 
  241.000000   -6.7198688338e-04   -4.9599343765e-06   -4.7818405733e-06 
  242.000000   -6.6714934655e-04   -4.8834564450e-06   -4.7060951260e-06 
  243.000000   -6.5679359249e-04   -4.8124335490e-06   -4.6435287118e-06 
  244.000000   -6.4119888702e-04   -4.7464653972e-06   -4.5968320705e-06 
  245.000000   -6.2072383297e-04   -4.6851109983e-06   -4.5654676910e-06 
  246.000000   -5.9573141333e-04   -4.6274949637e-06   -4.5480276754e-06 
  247.000000   -5.6661336566e-04   -4.5742795192e-06   -4.5412865006e-06 
  248.000000   -5.3357891738e-04   -4.5249889991e-06   -4.5403610898e-06 
  249.000000   -4.9680446681e-04   -4.4811757971e-06   -4.5423437882e-06 
  250.000000   -4.5647482329e-04   -4.4437107545e-06   -4.5455151962e-06 
  251.000000   -4.1215569944e-04   -4.4140124555e-06   -4.5483982944e-06 
  252.000000   -3.6369092413e-04   -4.3929955109e-06   -4.5526865620e-06 
  253.000000   -3.1095444864e-04   -4.3827125364e-06   -4.5619952402e-06 
  254.000000   -2.5321850261e-04   -4.3818495397e-06   -4.5779427751e-06 
  255.000000   -1.9056547898e-04   -4.3902757807e-06   -4.6038360892e-06 
  256.000000   -1.2333331687e-04   -4.4076990844e-06   -4.6408234198e-06 
  257.000000   -5.1909912138e-05   -4.4324697410e-06   -4.6896078061e-06 
  258.000000    2.2653766798e-05   -4.4632855816e-06   -4.7495321382e-06 
  259.000000    9.8702614203e-05   -4.4987190404e-06   -4.8182812975e-06 
  260.000000    1.7438583019e-04   -4.5382174858e-06   -4.8941836326e-06 
  261.000000    2.4755171035e-04   -4.5802295472e-06   -4.9740668260e-06 
  262.000000    3.1621071685e-04   -4.6243240104e-06   -5.0564079288e-06 
  263.000000    3.7862978935e-04   -4.6713096435e-06   -5.1397217362e-06 
  264.000000    4.3347937754e-04   -4.7204953444e-06   -5.2234175314e-06 
  265.000000    4.8010972387e-04   -4.7740810669e-06   -5.3075953588e-06 
  266.000000    5.1827912103e-04   -4.8312689569e-06   -5.3915971989e-06 
  267.000000    5.4870618624e-04   -4.8936206167e-06   -5.4749201013e-06 
  268.000000    5.7214871050e-04   -4.9602220042e-06   -5.5563880892e-06 
