
  &&electric field:  1.000000e-06  0.000000e+00  0.000000e+00 
  &&dipole at groud state:   -8.8944215548e-07   -5.4272911894e-06   -5.0168271741e-06 
  0.000000    2.2515500314e-04   -5.4319352967e-06   -5.0050751383e-06 
  1.000000    6.6944252467e-04   -5.4514677186e-06   -5.0023366498e-06 
  2.000000    1.0884424119e-03   -5.4654883752e-06   -5.0003757792e-06 
  3.000000    1.4667081996e-03   -5.4718456295e-06   -5.0005899652e-06 
  4.000000    1.7912138137e-03   -5.4685246096e-06   -5.0019323794e-06 
  5.000000    2.0520382241e-03   -5.4538987979e-06   -5.0053511700e-06 
  6.000000    2.2428385419e-03   -5.4291395100e-06   -5.0115193631e-06 
  7.000000    2.3610736098e-03   -5.3953910037e-06   -5.0210599625e-06 
  8.000000    2.4079564610e-03   -5.3556756439e-06   -5.0344863780e-06 
  9.000000    2.3881556990e-03   -5.3123835824e-06   -5.0507817946e-06 
  10.000000    2.3092737392e-03   -5.2699705475e-06   -5.0698448035e-06 
  11.000000    2.1811609622e-03   -5.2310115461e-06   -5.0923206913e-06 
  12.000000    2.0151309145e-03   -5.1998016670e-06   -5.1178488434e-06 
  13.000000    1.8231229478e-03   -5.1785859978e-06   -5.1450877550e-06 
  14.000000    1.6169197770e-03   -5.1691266845e-06   -5.1733798614e-06 
  15.000000    1.4074183710e-03   -5.1722804710e-06   -5.2011935736e-06 
  16.000000    1.2040567381e-03   -5.1873635312e-06   -5.2288876873e-06 
  17.000000    1.0143876425e-03   -5.2131226949e-06   -5.2547455311e-06 
  18.000000    8.4382419301e-04   -5.2467153364e-06   -5.2775051813e-06 
  19.000000    6.9557789539e-04   -5.2861520499e-06   -5.2974576761e-06 
  20.000000    5.7073107747e-04   -5.3278220276e-06   -5.3132760627e-06 
  21.000000    4.6846676560e-04   -5.3691539006e-06   -5.3253809824e-06 
  22.000000    3.8639594278e-04   -5.4062018262e-06   -5.3336273709e-06 
  23.000000    3.2093713526e-04   -5.4374787806e-06   -5.3394281281e-06 
  24.000000    2.6775697189e-04   -5.4613923521e-06   -5.3423480608e-06 
  25.000000    2.2217775405e-04   -5.4765777304e-06   -5.3439892440e-06 
  26.000000    1.7957793899e-04   -5.4833556260e-06   -5.3455240163e-06 
  27.000000    1.3573233446e-04   -5.4818739454e-06   -5.3470333228e-06 
  28.000000    8.7082065882e-05   -5.4729890917e-06   -5.3492297525e-06 
  29.000000    3.0927680207e-05   -5.4588494049e-06   -5.3528468129e-06 
  30.000000   -3.4451863023e-05   -5.4409072345e-06   -5.3566212159e-06 
  31.000000   -1.0976112389e-04   -5.4207976246e-06   -5.3600672913e-06 
  32.000000   -1.9472462008e-04   -5.3992599942e-06   -5.3620681797e-06 
  33.000000   -2.8817543352e-04   -5.3783800422e-06   -5.3601323202e-06 
  34.000000   -3.8819068867e-04   -5.3595714644e-06   -5.3521810628e-06 
  35.000000   -4.9227933049e-04   -5.3434807978e-06   -5.3367132864e-06 
  36.000000   -5.9755494294e-04   -5.3304334142e-06   -5.3116876302e-06 
  37.000000   -7.0095706905e-04   -5.3220178597e-06   -5.2758385323e-06 
  38.000000   -7.9943137825e-04   -5.3184409308e-06   -5.2283519949e-06 
  39.000000   -8.9010885858e-04   -5.3194084058e-06   -5.1699310575e-06 
  40.000000   -9.7046171140e-04   -5.3258381922e-06   -5.1008367450e-06 
  41.000000   -1.0384127672e-03   -5.3372766797e-06   -5.0220763228e-06 
  42.000000   -1.0924171947e-03   -5.3538515385e-06   -4.9364796837e-06 
  43.000000   -1.1315022566e-03   -5.3748114124e-06   -4.8451013868e-06 
  44.000000   -1.1552673823e-03   -5.3995860481e-06   -4.7517622193e-06 
  45.000000   -1.1638498836e-03   -5.4275722232e-06   -4.6590201350e-06 
  46.000000   -1.1578538106e-03   -5.4583878364e-06   -4.5699642328e-06 
  47.000000   -1.1382663360e-03   -5.4908173479e-06   -4.4872647891e-06 
  48.000000   -1.1063464626e-03   -5.5243888437e-06   -4.4129267849e-06 
  49.000000   -1.0635186336e-03   -5.5585363907e-06   -4.3493517410e-06 
  50.000000   -1.0112631135e-03   -5.5928760685e-06   -4.2982913442e-06 
  51.000000   -9.5101674378e-04   -5.6265074773e-06   -4.2608815534e-06 
  52.000000   -8.8409383897e-04   -5.6604294696e-06   -4.2387339931e-06 
  53.000000   -8.1163090362e-04   -5.6937044701e-06   -4.2321869955e-06 
  54.000000   -7.3455712117e-04   -5.7267175362e-06   -4.2412082735e-06 
  55.000000   -6.5358795108e-04   -5.7602579955e-06   -4.2650465844e-06 
  56.000000   -5.6924356613e-04   -5.7932158097e-06   -4.3022312752e-06 
  57.000000   -4.8188971413e-04   -5.8256299735e-06   -4.3516409391e-06 
  58.000000   -3.9179669692e-04   -5.8563979519e-06   -4.4110395834e-06 
  59.000000   -2.9919158259e-04   -5.8846760749e-06   -4.4781161819e-06 
  60.000000   -2.0432581368e-04   -5.9077100514e-06   -4.5498171062e-06 
  61.000000   -1.0752600792e-04   -5.9244666955e-06   -4.6233161015e-06 
  62.000000   -9.2421978408e-06   -5.9317769865e-06   -4.6954835966e-06 
  63.000000    8.9929380927e-05   -5.9275331705e-06   -4.7635056148e-06 
  64.000000    1.8923338212e-04   -5.9094436620e-06   -4.8241116133e-06 
  65.000000    2.8776198452e-04   -5.8755048440e-06   -4.8746281323e-06 
  66.000000    3.8447389671e-04   -5.8257198998e-06   -4.9138450890e-06 
  67.000000    4.7823533533e-04   -5.7597260548e-06   -4.9405701361e-06 
  68.000000    5.6784909976e-04   -5.6798600281e-06   -4.9552971291e-06 
  69.000000    6.5210745380e-04   -5.5887156987e-06   -4.9583707664e-06 
  70.000000    7.2983064457e-04   -5.4896825259e-06   -4.9512285045e-06 
  71.000000    7.9991439998e-04   -5.3867609222e-06   -4.9360817798e-06 
  72.000000    8.6135740276e-04   -5.2859912967e-06   -4.9156713544e-06 
  73.000000    9.1330094438e-04   -5.1912891377e-06   -4.8931377137e-06 
  74.000000    9.5504720230e-04   -5.1075667398e-06   -4.8719974188e-06 
  75.000000    9.8608055851e-04   -5.0392476578e-06   -4.8566187729e-06 
  76.000000    1.0060828936e-03   -4.9887846854e-06   -4.8509935482e-06 
  77.000000    1.0149378359e-03   -4.9584169983e-06   -4.8583936518e-06 
  78.000000    1.0127360438e-03   -4.9484282454e-06   -4.8828863441e-06 
  79.000000    9.9976794446e-04   -4.9578974495e-06   -4.9268931548e-06 
  80.000000    9.7651423130e-04   -4.9840259817e-06   -4.9912849249e-06 
  81.000000    9.4362546225e-04   -5.0232046260e-06   -5.0768656479e-06 
  82.000000    9.0188780451e-04   -5.0723210916e-06   -5.1827963148e-06 
  83.000000    8.5219393078e-04   -5.1254293294e-06   -5.3050933388e-06 
  84.000000    7.9549770454e-04   -5.1786960467e-06   -5.4399773148e-06 
  85.000000    7.3276295735e-04   -5.2276366387e-06   -5.5810131130e-06 
  86.000000    6.6493100895e-04   -5.2685100127e-06   -5.7209015836e-06 
  87.000000    5.9287001205e-04   -5.2979986731e-06   -5.8514640955e-06 
  88.000000    5.1734810405e-04   -5.3149396035e-06   -5.9644324324e-06 
  89.000000    4.3902042672e-04   -5.3177202699e-06   -6.0510340631e-06 
  90.000000    3.5842321814e-04   -5.3062217558e-06   -6.1036055854e-06 
  91.000000    2.7598513407e-04   -5.2816472089e-06   -6.1170911181e-06 
  92.000000    1.9205761783e-04   -5.2458142545e-06   -6.0875980239e-06 
  93.000000    1.0694807862e-04   -5.2006643227e-06   -6.0131572468e-06 
  94.000000    2.0965366282e-05   -5.1498380071e-06   -5.8961798572e-06 
  95.000000   -6.5545857062e-05   -5.0963186777e-06   -5.7409122860e-06 
  96.000000   -1.5215887105e-04   -5.0427152201e-06   -5.5545263535e-06 
  97.000000   -2.3834734747e-04   -4.9925157737e-06   -5.3465030874e-06 
  98.000000   -3.2346849911e-04   -4.9489836056e-06   -5.1278273645e-06 
  99.000000   -4.0676069329e-04   -4.9157280455e-06   -4.9108378448e-06 
  100.000000   -4.8736507596e-04   -4.8948932272e-06   -4.7073356768e-06 
  101.000000   -5.6434739962e-04   -4.8897528768e-06   -4.5279955998e-06 
  102.000000   -6.3673112890e-04   -4.9015797186e-06   -4.3828175080e-06 
  103.000000   -7.0353418413e-04   -4.9330730190e-06   -4.2786107883e-06 
  104.000000   -7.6381054532e-04   -4.9840146130e-06   -4.2198151391e-06 
  105.000000   -8.1667827907e-04   -5.0554491691e-06   -4.2081640572e-06 
  106.000000   -8.6135404126e-04   -5.1459670840e-06   -4.2413083179e-06 
  107.000000   -8.9716636284e-04   -5.2529881214e-06   -4.3149887574e-06 
  108.000000   -9.2358273104e-04   -5.3737786812e-06   -4.4206543066e-06 
  109.000000   -9.4020461255e-04   -5.5023953291e-06   -4.5481240818e-06 
  110.000000   -9.4677958986e-04   -5.6331699807e-06   -4.6867451715e-06 
  111.000000   -9.4319801428e-04   -5.7594933378e-06   -4.8235340842e-06 
  112.000000   -9.2949398094e-04   -5.8742727060e-06   -4.9465782581e-06 
  113.000000   -9.0584508143e-04   -5.9705656850e-06   -5.0446236060e-06 
  114.000000   -8.7255868129e-04   -6.0422709294e-06   -5.1084014672e-06 
  115.000000   -8.3007816283e-04   -6.0863240106e-06   -5.1311415632e-06 
  116.000000   -7.7896344009e-04   -6.0994203932e-06   -5.1089485282e-06 
  117.000000   -7.1988637500e-04   -6.0823682770e-06   -5.0413889880e-06 
  118.000000   -6.5361724409e-04   -6.0379585602e-06   -4.9325979603e-06 
  119.000000   -5.8100545720e-04   -5.9728939914e-06   -4.7906049190e-06 
  120.000000   -5.0296462722e-04   -5.8945129422e-06   -4.6256303108e-06 
  121.000000   -4.2044886504e-04   -5.8126190834e-06   -4.4518745312e-06 
  122.000000   -3.3443798019e-04   -5.7381461329e-06   -4.2841227810e-06 
  123.000000   -2.4591435794e-04   -5.6811022842e-06   -4.1369660835e-06 
  124.000000   -1.5585384971e-04   -5.6499716448e-06   -4.0248494884e-06 
  125.000000   -6.5216721843e-05   -5.6513378195e-06   -3.9602835500e-06 
  126.000000    2.5070708951e-05   -5.6878790429e-06   -3.9513554952e-06 
  127.000000    1.1411402375e-04   -5.7595580256e-06   -4.0023213046e-06 
  128.000000    2.0105503791e-04   -5.8596238159e-06   -4.1127316877e-06 
  129.000000    2.8508009564e-04   -5.9805759247e-06   -4.2770651021e-06 
  130.000000    3.6541627197e-04   -6.1094259718e-06   -4.4854835437e-06 
  131.000000    4.4134564815e-04   -6.2338701992e-06   -4.7243950689e-06 
  132.000000    5.1220030583e-04   -6.3395099414e-06   -4.9772150419e-06 
  133.000000    5.7737044700e-04   -6.4123126049e-06   -5.2267067190e-06 
  134.000000    6.3631360536e-04   -6.4419385990e-06   -5.4548048070e-06 
  135.000000    6.8854929123e-04   -6.4200853740e-06   -5.6470979075e-06 
  136.000000    7.3367291771e-04   -6.3431649733e-06   -5.7910077089e-06 
  137.000000    7.7134004096e-04   -6.2121790916e-06   -5.8783141981e-06 
  138.000000    8.0128118862e-04   -6.0327994515e-06   -5.9067991174e-06 
  139.000000    8.2328515419e-04   -5.8147571917e-06   -5.8770877445e-06 
  140.000000    8.3720352269e-04   -5.5705376281e-06   -5.7954142108e-06 
  141.000000    8.4294925910e-04   -5.3145603442e-06   -5.6712881928e-06 
  142.000000    8.4049298312e-04   -5.0614271641e-06   -5.5167282085e-06 
  143.000000    8.2987766655e-04   -4.8248085887e-06   -5.3450629025e-06 
  144.000000    8.1121086260e-04   -4.6160750071e-06   -5.1693889986e-06 
  145.000000    7.8469076835e-04   -4.4430488697e-06   -5.0018959996e-06 
  146.000000    7.5059782831e-04   -4.3107320562e-06   -4.8528498269e-06 
  147.000000    7.0931053779e-04   -4.2191674265e-06   -4.7302485768e-06 
  148.000000    6.6131324275e-04   -4.1651545826e-06   -4.6384814709e-06 
  149.000000    6.0717802263e-04   -4.1431750515e-06   -4.5812642497e-06 
  150.000000    5.4756311875e-04   -4.1455758901e-06   -4.5580248411e-06 
  151.000000    4.8319555936e-04   -4.1644980411e-06   -4.5677032290e-06 
  152.000000    4.1484726535e-04   -4.1921951106e-06   -4.6070134090e-06 
  153.000000    3.4330468043e-04   -4.2231652242e-06   -4.6725074867e-06 
  154.000000    2.6935119241e-04   -4.2522363128e-06   -4.7601113806e-06 
  155.000000    1.9373156830e-04   -4.2778487068e-06   -4.8658901619e-06 
  156.000000    1.1715006259e-04   -4.3015003439e-06   -4.9853377391e-06 
  157.000000    4.0243743577e-05   -4.3248358179e-06   -5.1139493848e-06 
  158.000000   -3.6399549565e-05   -4.3531088250e-06   -5.2471357890e-06 
  159.000000   -1.1223900946e-04   -4.3900838773e-06   -5.3783854241e-06 
  160.000000   -1.8677429761e-04   -4.4410141027e-06   -5.5028029351e-06 
  161.000000   -2.5951031420e-04   -4.5095163341e-06   -5.6135989439e-06 
  162.000000   -3.2994370849e-04   -4.5977029868e-06   -5.7049390421e-06 
  163.000000   -3.9754503813e-04   -4.7057701704e-06   -5.7698596834e-06 
  164.000000   -4.6174976159e-04   -4.8320623773e-06   -5.8030516925e-06 
  165.000000   -5.2194856107e-04   -4.9725749887e-06   -5.7997174849e-06 
  166.000000   -5.7749720872e-04   -5.1221794775e-06   -5.7588143250e-06 
  167.000000   -6.2773367971e-04   -5.2745149515e-06   -5.6801275718e-06 
  168.000000   -6.7199031763e-04   -5.4238103258e-06   -5.5671237646e-06 
  169.000000   -7.0963281905e-04   -5.5642223242e-06   -5.4260884212e-06 
  170.000000   -7.4007808870e-04   -5.6910023614e-06   -5.2658763821e-06 
  171.000000   -7.6282802910e-04   -5.8015965760e-06   -5.0975461932e-06 
  172.000000   -7.7749027695e-04   -5.8942815895e-06   -4.9335729386e-06 
  173.000000   -7.8379584010e-04   -5.9698731047e-06   -4.7861129246e-06 
  174.000000   -7.8161993587e-04   -6.0307026115e-06   -4.6667285574e-06 
  175.000000   -7.7098242763e-04   -6.0812115135e-06   -4.5845261525e-06 
  176.000000   -7.5204823224e-04   -6.1251086163e-06   -4.5458935460e-06 
  177.000000   -7.2512736369e-04   -6.1673450955e-06   -4.5529057502e-06 
  178.000000   -6.9066358264e-04   -6.2122440068e-06   -4.6037319521e-06 
  179.000000   -6.4921949524e-04   -6.2627401758e-06   -4.6921148282e-06 
  180.000000   -6.0146891337e-04   -6.3206091636e-06   -4.8083491606e-06 
  181.000000   -5.4816549527e-04   -6.3853360825e-06   -4.9385819807e-06 
  182.000000   -4.9013244278e-04   -6.4549298213e-06   -5.0691745059e-06 
  183.000000   -4.2822542309e-04   -6.5241868197e-06   -5.1836103125e-06 
  184.000000   -3.6331955925e-04   -6.5886287257e-06   -5.2673997857e-06 
  185.000000   -2.9626810282e-04   -6.6408912471e-06   -5.3088545542e-06 
  186.000000   -2.2788593196e-04   -6.6745975755e-06   -5.2975004223e-06 
  187.000000   -1.5891634393e-04   -6.6826534248e-06   -5.2288476695e-06 
  188.000000   -9.0018787880e-05   -6.6601819708e-06   -5.1028771964e-06 
  189.000000   -2.1749481668e-05   -6.6027277126e-06   -4.9247190077e-06 
  190.000000    4.5438471723e-05   -6.5098744426e-06   -4.7048741294e-06 
  191.000000    1.1119460397e-04   -6.3828243992e-06   -4.4566775728e-06 
  192.000000    1.7525118893e-04   -6.2261788298e-06   -4.1983183223e-06 
  193.000000    2.3740500911e-04   -6.0476219415e-06   -3.9488998596e-06 
  194.000000    2.9748724774e-04   -5.8566546568e-06   -3.7277657725e-06 
  195.000000    3.5533089250e-04   -5.6637421904e-06   -3.5532414699e-06 
  196.000000    4.1074496404e-04   -5.4810845040e-06   -3.4415382402e-06 
  197.000000    4.6347665194e-04   -5.3187259437e-06   -3.4036295915e-06 
  198.000000    5.1319698105e-04   -5.1865827300e-06   -3.4461316432e-06 
  199.000000    5.5949094531e-04   -5.0908728508e-06   -3.5693240648e-06 
  200.000000    6.0185146868e-04   -5.0347868137e-06   -3.7673929114e-06 
  201.000000    6.3969132317e-04   -5.0176123705e-06   -4.0292887320e-06 
  202.000000    6.7236724136e-04   -5.0350576157e-06   -4.3385160211e-06 
  203.000000    6.9920597890e-04   -5.0781017262e-06   -4.6756147754e-06 
  204.000000    7.1953758016e-04   -5.1353013260e-06   -5.0179845061e-06 
  205.000000    7.3273203453e-04   -5.1939389505e-06   -5.3434530969e-06 
  206.000000    7.3824236461e-04   -5.2390307883e-06   -5.6305528346e-06 
  207.000000    7.3562825856e-04   -5.2581863383e-06   -5.8612234284e-06 
  208.000000    7.2459362855e-04   -5.2400883033e-06   -6.0226282699e-06 
  209.000000    7.0499988215e-04   -5.1771871949e-06   -6.1063495309e-06 
  210.000000    6.7688406853e-04   -5.0674892873e-06   -6.1120234136e-06 
  211.000000    6.4046487388e-04   -4.9122779910e-06   -6.0441287246e-06 
  212.000000    5.9613572376e-04   -4.7198190214e-06   -5.9137658468e-06 
  213.000000    5.4445766728e-04   -4.5012323153e-06   -5.7365753605e-06 
  214.000000    4.8614382104e-04   -4.2719061821e-06   -5.5329085740e-06 
  215.000000    4.2203885096e-04   -4.0487851902e-06   -5.3230622257e-06 
  216.000000    3.5309600936e-04   -3.8505584325e-06   -5.1271857160e-06 
  217.000000    2.8034923890e-04   -3.6924923461e-06   -4.9649718790e-06 
  218.000000    2.0488878364e-04   -3.5890660866e-06   -4.8508539408e-06 
  219.000000    1.2782782142e-04   -3.5493113910e-06   -4.7951842248e-06 
  220.000000    5.0282062155e-05   -3.5770573459e-06   -4.8018580969e-06 
  221.000000   -2.6662295561e-05   -3.6720284879e-06   -4.8697777970e-06 
  222.000000   -1.0197061055e-04   -3.8267167111e-06   -4.9904272714e-06 
  223.000000   -1.7468672012e-04   -4.0302552589e-06   -5.1519617159e-06 
  224.000000   -2.4394525098e-04   -4.2686274537e-06   -5.3382189549e-06 
  225.000000   -3.0899471312e-04   -4.5256635031e-06   -5.5303547128e-06 
  226.000000   -3.6920719139e-04   -4.7840868729e-06   -5.7103191580e-06 
  227.000000   -4.2408084845e-04   -5.0299800205e-06   -5.8611588543e-06 
  228.000000   -4.7324552724e-04   -5.2507929422e-06   -5.9684001030e-06 
  229.000000   -5.1645441271e-04   -5.4386474813e-06   -6.0220743876e-06 
  230.000000   -5.5357452947e-04   -5.5886684049e-06   -6.0181048980e-06 
  231.000000   -5.8457249542e-04   -5.7014190316e-06   -5.9569613882e-06 
  232.000000   -6.0949602629e-04   -5.7810629142e-06   -5.8435182950e-06 
  233.000000   -6.2844717467e-04   -5.8344067111e-06   -5.6891965983e-06 
  234.000000   -6.4156932057e-04   -5.8709570294e-06   -5.5062435536e-06 
  235.000000   -6.4902064332e-04   -5.8999180692e-06   -5.3100396258e-06 
  236.000000   -6.5096316393e-04   -5.9306293179e-06   -5.1151099001e-06 
  237.000000   -6.4755123457e-04   -5.9705097510e-06   -4.9347034405e-06 
  238.000000   -6.3892622710e-04   -6.0245572695e-06   -4.7802166705e-06 
  239.000000   -6.2521702784e-04   -6.0945163978e-06   -4.6578396109e-06 
  240.000000   -6.0654537810e-04   -6.1805120777e-06   -4.5712061478e-06 
  241.000000   -5.8303851983e-04   -6.2795466147e-06   -4.5174372758e-06 
  242.000000   -5.5483347386e-04   -6.3861850959e-06   -4.4922570055e-06 
  243.000000   -5.2209381828e-04   -6.4956442611e-06   -4.4871702016e-06 
  244.000000   -4.8501533455e-04   -6.6007584292e-06   -4.4930209810e-06 
  245.000000   -4.4381909537e-04   -6.6952622046e-06   -4.4998712951e-06 
  246.000000   -3.9876703521e-04   -6.7738252665e-06   -4.4993255983e-06 
  247.000000   -3.5013980231e-04   -6.8339889094e-06   -4.4848218863e-06 
  248.000000   -2.9824223019e-04   -6.8725749043e-06   -4.4535484562e-06 
  249.000000   -2.4339098308e-04   -6.8884560460e-06   -4.4068595457e-06 
  250.000000   -1.8591212574e-04   -6.8824670234e-06   -4.3491380097e-06 
  251.000000   -1.2614205479e-04   -6.8552842731e-06   -4.2869385766e-06 
  252.000000   -6.4440493581e-05   -6.8080422762e-06   -4.2301351755e-06 
  253.000000   -1.1963420476e-06   -6.7413350462e-06   -4.1890214675e-06 
  254.000000    6.3138111734e-05   -6.6568524244e-06   -4.1729925329e-06 
  255.000000    1.2803931896e-04   -6.5542218590e-06   -4.1898245513e-06 
  256.000000    1.9287916076e-04   -6.4337932781e-06   -4.2436075205e-06 
  257.000000    2.5692074269e-04   -6.2954153646e-06   -4.3344328446e-06 
  258.000000    3.1930708793e-04   -6.1392118096e-06   -4.4585129331e-06 
  259.000000    3.7908130617e-04   -5.9655844962e-06   -4.6075882096e-06 
  260.000000    4.3520687905e-04   -5.7765248767e-06   -4.7700044092e-06 
  261.000000    4.8661610345e-04   -5.5738428455e-06   -4.9320863695e-06 
  262.000000    5.3227496392e-04   -5.3623337135e-06   -5.0787583064e-06 
  263.000000    5.7122943691e-04   -5.1463939781e-06   -5.1968325465e-06 
  264.000000    6.0268596281e-04   -4.9319375148e-06   -5.2754870126e-06 
  265.000000    6.2606594293e-04   -4.7261863938e-06   -5.3070637591e-06 
  266.000000    6.4104447666e-04   -4.5360977947e-06   -5.2891794553e-06 
  267.000000    6.4757917426e-04   -4.3672594257e-06   -5.2249432088e-06 
  268.000000    6.4590608236e-04   -4.2256113102e-06   -5.1226541586e-06 
