
  &&electric field:  1.000000e-06  0.000000e+00  0.000000e+00 
  &&dipole at groud state:    3.5152901560e-05    2.1159349579e-04    2.0671514966e-04 
  0.000000    2.7246985702e-04    2.1160042898e-04    2.0672864838e-04 
  1.000000    7.3287902343e-04    2.1160105585e-04    2.0673139187e-04 
  2.000000    1.1470113823e-03    2.1160149559e-04    2.0673508169e-04 
  3.000000    1.4895993227e-03    2.1160251263e-04    2.0674010574e-04 
  4.000000    1.7436904455e-03    2.1160394736e-04    2.0674558272e-04 
  5.000000    1.9014967838e-03    2.1160446907e-04    2.0675195191e-04 
  6.000000    1.9649902097e-03    2.1160559218e-04    2.0675851437e-04 
  7.000000    1.9442193007e-03    2.1160529955e-04    2.0676322282e-04 
  8.000000    1.8558723678e-03    2.1160493518e-04    2.0676514686e-04 
  9.000000    1.7210769875e-03    2.1160424533e-04    2.0676231378e-04 
  10.000000    1.5615433804e-03    2.1160191009e-04    2.0675168224e-04 
  11.000000    1.3966986298e-03    2.1159939636e-04    2.0673220359e-04 
  12.000000    1.2415390229e-03    2.1159607796e-04    2.0670333805e-04 
  13.000000    1.1054624192e-03    2.1159301455e-04    2.0666586005e-04 
  14.000000    9.9214122748e-04    2.1158893137e-04    2.0662220658e-04 
  15.000000    9.0031560104e-04    2.1158432763e-04    2.0657639396e-04 
  16.000000    8.2523436869e-04    2.1157819638e-04    2.0653257587e-04 
  17.000000    7.6038965200e-04    2.1157034210e-04    2.0649617244e-04 
  18.000000    6.9921438991e-04    2.1156067099e-04    2.0647169976e-04 
  19.000000    6.3641009912e-04    2.1154773115e-04    2.0646118327e-04 
  20.000000    5.6875256998e-04    2.1153231044e-04    2.0646515139e-04 
  21.000000    4.9529940590e-04    2.1151446490e-04    2.0648210392e-04 
  22.000000    4.1709122890e-04    2.1149533289e-04    2.0650653477e-04 
  23.000000    3.3648460523e-04    2.1147558651e-04    2.0653323571e-04 
  24.000000    2.5634471969e-04    2.1145711797e-04    2.0655542693e-04 
  25.000000    1.7928209856e-04    2.1144181424e-04    2.0656695978e-04 
  26.000000    1.0709076015e-04    2.1143095851e-04    2.0656465784e-04 
  27.000000    4.0474784342e-05    2.1142515878e-04    2.0654849658e-04 
  28.000000   -2.0924257100e-05    2.1142506169e-04    2.0652005168e-04 
  29.000000   -7.8283235766e-05    2.1143083073e-04    2.0648418757e-04 
  30.000000   -1.3319739081e-04    2.1144155708e-04    2.0644778596e-04 
  31.000000   -1.8727766290e-04    2.1145717617e-04    2.0641756299e-04 
  32.000000   -2.4178829334e-04    2.1147576215e-04    2.0640077418e-04 
  33.000000   -2.9743614139e-04    2.1149777920e-04    2.0640091969e-04 
  34.000000   -3.5429454873e-04    2.1152044415e-04    2.0641797954e-04 
  35.000000   -4.1184693690e-04    2.1154517752e-04    2.0645157309e-04 
  36.000000   -4.6913050754e-04    2.1157061051e-04    2.0649624611e-04 
  37.000000   -5.2490329834e-04    2.1159566891e-04    2.0654598046e-04 
  38.000000   -5.7780904170e-04    2.1162078609e-04    2.0659466526e-04 
  39.000000   -6.2650258768e-04    2.1164549308e-04    2.0663511913e-04 
  40.000000   -6.6972745115e-04    2.1166848726e-04    2.0666477457e-04 
  41.000000   -7.0636939198e-04    2.1168968940e-04    2.0668076121e-04 
  42.000000   -7.3548681392e-04    2.1170808564e-04    2.0668376573e-04 
  43.000000   -7.5632496736e-04    2.1172384320e-04    2.0667691268e-04 
  44.000000   -7.6834640639e-04    2.1173680521e-04    2.0666504287e-04 
  45.000000   -7.7125265669e-04    2.1174642618e-04    2.0665302844e-04 
  46.000000   -7.6501662259e-04    2.1175365257e-04    2.0664502989e-04 
  47.000000   -7.4987288097e-04    2.1175964148e-04    2.0664503353e-04 
  48.000000   -7.2629142959e-04    2.1176472340e-04    2.0665564142e-04 
  49.000000   -6.9491381872e-04    2.1176993730e-04    2.0667760208e-04 
  50.000000   -6.5646537404e-04    2.1177553593e-04    2.0671008559e-04 
  51.000000   -6.1166635713e-04    2.1178251277e-04    2.0675135937e-04 
  52.000000   -5.6114366451e-04    2.1178997734e-04    2.0679802554e-04 
  53.000000   -5.0540655501e-04    2.1179727387e-04    2.0684845612e-04 
  54.000000   -4.4483647797e-04    2.1180383190e-04    2.0689862475e-04 
  55.000000   -3.7974758014e-04    2.1180906786e-04    2.0694625181e-04 
  56.000000   -3.1047985247e-04    2.1181095313e-04    2.0698807401e-04 
  57.000000   -2.3748997772e-04    2.1181094130e-04    2.0702298269e-04 
  58.000000   -1.6143110405e-04    2.1180868473e-04    2.0704787738e-04 
  59.000000   -8.3208491546e-05    2.1180388090e-04    2.0706239246e-04 
  60.000000   -3.9480073468e-06    2.1179764733e-04    2.0706537242e-04 
  61.000000    7.5064264834e-05    2.1179077292e-04    2.0705689593e-04 
  62.000000    1.5248477577e-04    2.1178384075e-04    2.0703664194e-04 
  63.000000    2.2706587335e-04    2.1177646725e-04    2.0700700787e-04 
  64.000000    2.9775516306e-04    2.1176939240e-04    2.0696923974e-04 
  65.000000    3.6378741790e-04    2.1176223332e-04    2.0692548532e-04 
  66.000000    4.2471678172e-04    2.1175325967e-04    2.0688025523e-04 
  67.000000    4.8037894886e-04    2.1174195397e-04    2.0683671636e-04 
  68.000000    5.3082226079e-04    2.1172801324e-04    2.0679787821e-04 
  69.000000    5.7618723078e-04    2.1171035358e-04    2.0676717912e-04 
  70.000000    6.1658912456e-04    2.1168953036e-04    2.0674532669e-04 
  71.000000    6.5203063424e-04    2.1166655402e-04    2.0673451735e-04 
  72.000000    6.8232620835e-04    2.1164118401e-04    2.0673164198e-04 
  73.000000    7.0711888840e-04    2.1161603670e-04    2.0673572698e-04 
  74.000000    7.2590306810e-04    2.1159263722e-04    2.0674144270e-04 
  75.000000    7.3811149925e-04    2.1157274532e-04    2.0674477645e-04 
  76.000000    7.4321932335e-04    2.1155668706e-04    2.0674017259e-04 
  77.000000    7.4083612709e-04    2.1154568149e-04    2.0672386171e-04 
  78.000000    7.3079211872e-04    2.1153823523e-04    2.0669364193e-04 
  79.000000    7.1317519179e-04    2.1153352086e-04    2.0664905304e-04 
  80.000000    6.8833473780e-04    2.1153156932e-04    2.0659239379e-04 
  81.000000    6.5684269067e-04    2.1152827956e-04    2.0652917527e-04 
  82.000000    6.1942968752e-04    2.1152453585e-04    2.0646535557e-04 
  83.000000    5.7689628740e-04    2.1151819986e-04    2.0640836709e-04 
  84.000000    5.3002694041e-04    2.1151015651e-04    2.0636458311e-04 
  85.000000    4.7952136084e-04    2.1150026815e-04    2.0633838830e-04 
  86.000000    4.2593987020e-04    2.1149030122e-04    2.0633176126e-04 
  87.000000    3.6969887152e-04    2.1148216454e-04    2.0634198034e-04 
  88.000000    3.1108556142e-04    2.1147648441e-04    2.0636436619e-04 
  89.000000    2.5031813131e-04    2.1147542962e-04    2.0639126586e-04 
  90.000000    1.8760868990e-04    2.1147838695e-04    2.0641655027e-04 
  91.000000    1.2323673583e-04    2.1148445613e-04    2.0643160695e-04 
  92.000000    5.7628407390e-05    2.1149255074e-04    2.0643370789e-04 
  93.000000   -8.6155487082e-06    2.1149960842e-04    2.0642091039e-04 
  94.000000   -7.4710187604e-05    2.1150546045e-04    2.0639827989e-04 
  95.000000   -1.3971851148e-04    2.1150695930e-04    2.0637070355e-04 
  96.000000   -2.0261756434e-04    2.1150458097e-04    2.0634674564e-04 
  97.000000   -2.6240122678e-04    2.1149831978e-04    2.0633404137e-04 
  98.000000   -3.1817800480e-04    2.1148877759e-04    2.0633867706e-04 
  99.000000   -3.6926289611e-04    2.1148023505e-04    2.0636317157e-04 
  100.000000   -4.1523108665e-04    2.1147473499e-04    2.0640439851e-04 
  101.000000   -4.5595336995e-04    2.1147549328e-04    2.0645715466e-04 
  102.000000   -4.9154392035e-04    2.1148355936e-04    2.0651161793e-04 
  103.000000   -5.2229560968e-04    2.1149938321e-04    2.0655890211e-04 
  104.000000   -5.4856395580e-04    2.1152382827e-04    2.0659093269e-04 
  105.000000   -5.7064801511e-04    2.1155438081e-04    2.0660293575e-04 
  106.000000   -5.8868162158e-04    2.1158919331e-04    2.0659717592e-04 
  107.000000   -6.0255279821e-04    2.1162621554e-04    2.0657694694e-04 
  108.000000   -6.1188716789e-04    2.1166311488e-04    2.0655388988e-04 
  109.000000   -6.1605914378e-04    2.1169683269e-04    2.0653925702e-04 
  110.000000   -6.1428740445e-04    2.1172704303e-04    2.0654524286e-04 
  111.000000   -6.0573373047e-04    2.1175319010e-04    2.0657908789e-04 
  112.000000   -5.8964027265e-04    2.1177623772e-04    2.0664490211e-04 
  113.000000   -5.6544796097e-04    2.1179599546e-04    2.0673823082e-04 
  114.000000   -5.3291211951e-04    2.1181291548e-04    2.0685119733e-04 
  115.000000   -4.9214076715e-04    2.1182831140e-04    2.0697056033e-04 
  116.000000   -4.4363705091e-04    2.1184241278e-04    2.0708059236e-04 
  117.000000   -3.8825166119e-04    2.1185396643e-04    2.0716644548e-04 
  118.000000   -3.2713190011e-04    2.1186335139e-04    2.0721889922e-04 
  119.000000   -2.6163354049e-04    2.1187019670e-04    2.0723172310e-04 
  120.000000   -1.9321581929e-04    2.1187377488e-04    2.0720859419e-04 
  121.000000   -1.2335136124e-04    2.1187388209e-04    2.0715522004e-04 
  122.000000   -5.3426294457e-05    2.1187051412e-04    2.0708485198e-04 
  123.000000    1.5343757710e-05    2.1186486047e-04    2.0701080592e-04 
  124.000000    8.1955106012e-05    2.1185792785e-04    2.0694609947e-04 
  125.000000    1.4567445034e-04    2.1184986063e-04    2.0690060654e-04 
  126.000000    2.0603642044e-04    2.1184131058e-04    2.0687883188e-04 
  127.000000    2.6283187619e-04    2.1183179579e-04    2.0688034346e-04 
  128.000000    3.1607500570e-04    2.1182188378e-04    2.0689969023e-04 
  129.000000    3.6591393292e-04    2.1181000077e-04    2.0692881452e-04 
  130.000000    4.1255266116e-04    2.1179634357e-04    2.0695754728e-04 
  131.000000    4.5615168348e-04    2.1177968538e-04    2.0697800591e-04 
  132.000000    4.9672789466e-04    2.1176049948e-04    2.0698347879e-04 
  133.000000    5.3407860106e-04    2.1173828359e-04    2.0697123153e-04 
  134.000000    5.6774985570e-04    2.1171480976e-04    2.0694382164e-04 
  135.000000    5.9703568697e-04    2.1169017337e-04    2.0690484160e-04 
  136.000000    6.2104688551e-04    2.1166550844e-04    2.0686078659e-04 
  137.000000    6.3881189273e-04    2.1164183566e-04    2.0681734003e-04 
  138.000000    6.4940589074e-04    2.1161889911e-04    2.0677854735e-04 
  139.000000    6.5209822789e-04    2.1159656624e-04    2.0674501201e-04 
  140.000000    6.4647365072e-04    2.1157400429e-04    2.0671588453e-04 
  141.000000    6.3251730172e-04    2.1155096645e-04    2.0668777705e-04 
  142.000000    6.1063947216e-04    2.1152537134e-04    2.0665500705e-04 
  143.000000    5.8164684744e-04    2.1149696861e-04    2.0661388697e-04 
  144.000000    5.4664436904e-04    2.1146553170e-04    2.0656132000e-04 
  145.000000    5.0691160142e-04    2.1143184402e-04    2.0649898778e-04 
  146.000000    4.6374672094e-04    2.1139712315e-04    2.0642970702e-04 
  147.000000    4.1832652643e-04    2.1136143424e-04    2.0636081416e-04 
  148.000000    3.7159245404e-04    2.1132772552e-04    2.0630067610e-04 
  149.000000    3.2408158587e-04    2.1129700267e-04    2.0625786937e-04 
  150.000000    2.7631677223e-04    2.1127013506e-04    2.0623793915e-04 
  151.000000    2.2832905235e-04    2.1124870430e-04    2.0624367988e-04 
  152.000000    1.7979610131e-04    2.1123355530e-04    2.0627316297e-04 
  153.000000    1.3094220778e-04    2.1122364488e-04    2.0632110835e-04 
  154.000000    8.1384263481e-05    2.1122084557e-04    2.0637795495e-04 
  155.000000    3.0817813254e-05    2.1122323742e-04    2.0643017950e-04 
  156.000000   -2.0306135397e-05    2.1123207965e-04    2.0646887032e-04 
  157.000000   -7.1966496748e-05    2.1124732084e-04    2.0648417484e-04 
  158.000000   -1.2388764297e-04    2.1126788645e-04    2.0647419313e-04 
  159.000000   -1.7525063593e-04    2.1129434343e-04    2.0643707302e-04 
  160.000000   -2.2560368232e-04    2.1132514938e-04    2.0638202858e-04 
  161.000000   -2.7408900495e-04    2.1135914697e-04    2.0631786964e-04 
  162.000000   -3.1986350949e-04    2.1139532349e-04    2.0625728274e-04 
  163.000000   -3.6232598357e-04    2.1143285344e-04    2.0621295943e-04 
  164.000000   -4.0069775422e-04    2.1146982554e-04    2.0619434252e-04 
  165.000000   -4.3429649666e-04    2.1150600103e-04    2.0620796130e-04 
  166.000000   -4.6270564779e-04    2.1153972055e-04    2.0625265751e-04 
  167.000000   -4.8544934542e-04    2.1157280888e-04    2.0632460809e-04 
  168.000000   -5.0218967952e-04    2.1160545314e-04    2.0641549162e-04 
  169.000000   -5.1280351180e-04    2.1163831625e-04    2.0651229960e-04 
  170.000000   -5.1717768655e-04    2.1167205032e-04    2.0660420586e-04 
  171.000000   -5.1532634824e-04    2.1170685259e-04    2.0668225415e-04 
  172.000000   -5.0740411096e-04    2.1174224444e-04    2.0673899934e-04 
  173.000000   -4.9360009142e-04    2.1177726169e-04    2.0677278252e-04 
  174.000000   -4.7420618647e-04    2.1180974270e-04    2.0678721302e-04 
  175.000000   -4.4953946779e-04    2.1183828163e-04    2.0678818663e-04 
  176.000000   -4.2001303517e-04    2.1186229717e-04    2.0678321079e-04 
  177.000000   -3.8603514257e-04    2.1187989101e-04    2.0678173922e-04 
  178.000000   -3.4796210819e-04    2.1189206505e-04    2.0679074458e-04 
  179.000000   -3.0639243776e-04    2.1189979428e-04    2.0681504901e-04 
  180.000000   -2.6165686721e-04    2.1190587914e-04    2.0685568160e-04 
  181.000000   -2.1436631503e-04    2.1191163135e-04    2.0691115259e-04 
  182.000000   -1.6520362986e-04    2.1191907284e-04    2.0697729695e-04 
  183.000000   -1.1456488572e-04    2.1193012524e-04    2.0704735988e-04 
  184.000000   -6.3189814668e-05    2.1194479255e-04    2.0711328415e-04 
  185.000000   -1.1835974860e-05    2.1196161616e-04    2.0716970101e-04 
  186.000000    3.9044563906e-05    2.1197873239e-04    2.0720892525e-04 
  187.000000    8.8752320167e-05    2.1199298088e-04    2.0722703192e-04 
  188.000000    1.3664380823e-04    2.1200279751e-04    2.0722270500e-04 
  189.000000    1.8247278059e-04    2.1200425759e-04    2.0719524190e-04 
  190.000000    2.2583398096e-04    2.1199673584e-04    2.0714749752e-04 
  191.000000    2.6638804412e-04    2.1198119439e-04    2.0708365145e-04 
  192.000000    3.0433235226e-04    2.1195758903e-04    2.0701241937e-04 
  193.000000    3.3955485561e-04    2.1193039911e-04    2.0694115773e-04 
  194.000000    3.7195548067e-04    2.1190147582e-04    2.0687706746e-04 
  195.000000    4.0189674475e-04    2.1187449600e-04    2.0682980238e-04 
  196.000000    4.2921534624e-04    2.1185018839e-04    2.0680252709e-04 
  197.000000    4.5372413298e-04    2.1182826775e-04    2.0679553262e-04 
  198.000000    4.7539481604e-04    2.1180756208e-04    2.0680903998e-04 
  199.000000    4.9376678363e-04    2.1178476400e-04    2.0683599104e-04 
  200.000000    5.0848755929e-04    2.1175566347e-04    2.0686616080e-04 
  201.000000    5.1906604496e-04    2.1171776164e-04    2.0688852936e-04 
  202.000000    5.2511277319e-04    2.1166902182e-04    2.0689628735e-04 
  203.000000    5.2624105594e-04    2.1160803690e-04    2.0687840532e-04 
  204.000000    5.2227576090e-04    2.1153738519e-04    2.0683498059e-04 
  205.000000    5.1319149499e-04    2.1145987851e-04    2.0676790444e-04 
  206.000000    4.9903364562e-04    2.1138167709e-04    2.0668544602e-04 
  207.000000    4.8002158293e-04    2.1130766275e-04    2.0659981573e-04 
  208.000000    4.5646353102e-04    2.1124242651e-04    2.0652102575e-04 
  209.000000    4.2851676700e-04    2.1118989092e-04    2.0646384627e-04 
  210.000000    3.9641001787e-04    2.1115123944e-04    2.0643295346e-04 
  211.000000    3.6040031411e-04    2.1112641762e-04    2.0642960425e-04 
  212.000000    3.2032580931e-04    2.1111181557e-04    2.0644745263e-04 
  213.000000    2.7634439176e-04    2.1110453848e-04    2.0647651098e-04 
  214.000000    2.2874273419e-04    2.1110107842e-04    2.0650332334e-04 
  215.000000    1.7746161031e-04    2.1109735688e-04    2.0651131507e-04 
  216.000000    1.2314131892e-04    2.1109082580e-04    2.0649124662e-04 
  217.000000    6.6609980436e-05    2.1108337794e-04    2.0643994520e-04 
  218.000000    8.6871587115e-06    2.1107573273e-04    2.0635823574e-04 
  219.000000   -4.9295616904e-05    2.1107118821e-04    2.0625929818e-04 
  220.000000   -1.0597365325e-04    2.1107298788e-04    2.0615591865e-04 
  221.000000   -1.5998150046e-04    2.1108430381e-04    2.0607021696e-04 
  222.000000   -2.1005881716e-04    2.1110714975e-04    2.0601660952e-04 
  223.000000   -2.5518295296e-04    2.1114111506e-04    2.0600561282e-04 
  224.000000   -2.9465330589e-04    2.1118496862e-04    2.0604211085e-04 
  225.000000   -3.2801605992e-04    2.1123506540e-04    2.0612185580e-04 
  226.000000   -3.5548026788e-04    2.1128763124e-04    2.0623170366e-04 
  227.000000   -3.7727435118e-04    2.1133900382e-04    2.0635528625e-04 
  228.000000   -3.9372887112e-04    2.1138582495e-04    2.0647719037e-04 
  229.000000   -4.0576518221e-04    2.1142642639e-04    2.0657676731e-04 
  230.000000   -4.1377558954e-04    2.1146216850e-04    2.0664626180e-04 
  231.000000   -4.1811831760e-04    2.1149306711e-04    2.0668067663e-04 
  232.000000   -4.1925665572e-04    2.1152342456e-04    2.0668195629e-04 
  233.000000   -4.1715287078e-04    2.1155623379e-04    2.0666273548e-04 
  234.000000   -4.1176613011e-04    2.1159371191e-04    2.0663080903e-04 
  235.000000   -4.0282976987e-04    2.1163787049e-04    2.0660440003e-04 
  236.000000   -3.9010889303e-04    2.1168951478e-04    2.0659221008e-04 
  237.000000   -3.7347679607e-04    2.1174644449e-04    2.0660212493e-04 
  238.000000   -3.5262903837e-04    2.1180800295e-04    2.0663695403e-04 
  239.000000   -3.2767179071e-04    2.1187000867e-04    2.0669505346e-04 
  240.000000   -2.9884955437e-04    2.1192997495e-04    2.0676978437e-04 
  241.000000   -2.6639796850e-04    2.1198448313e-04    2.0685305361e-04 
  242.000000   -2.3089945897e-04    2.1203152674e-04    2.0693668574e-04 
  243.000000   -1.9302118743e-04    2.1207019118e-04    2.0701387501e-04 
  244.000000   -1.5339063246e-04    2.1209991437e-04    2.0707733410e-04 
  245.000000   -1.1273879498e-04    2.1212146360e-04    2.0712488157e-04 
  246.000000   -7.1717586238e-05    2.1213624130e-04    2.0715394220e-04 
  247.000000   -3.0870214673e-05    2.1214471756e-04    2.0716603439e-04 
  248.000000    9.4012211918e-06    2.1214924366e-04    2.0716120588e-04 
  249.000000    4.8871734194e-05    2.1214940544e-04    2.0714225792e-04 
  250.000000    8.7484135307e-05    2.1214626859e-04    2.0711225915e-04 
  251.000000    1.2532586699e-04    2.1214020044e-04    2.0707499897e-04 
  252.000000    1.6258170946e-04    2.1213121384e-04    2.0703480430e-04 
  253.000000    1.9945818350e-04    2.1211871704e-04    2.0699669830e-04 
  254.000000    2.3595134554e-04    2.1210271096e-04    2.0696578139e-04 
  255.000000    2.7239280463e-04    2.1208172016e-04    2.0694329959e-04 
  256.000000    3.0841765694e-04    2.1205634378e-04    2.0693149844e-04 
  257.000000    3.4349692579e-04    2.1202591402e-04    2.0693003552e-04 
  258.000000    3.7705714932e-04    2.1198815294e-04    2.0693399409e-04 
  259.000000    4.0806685867e-04    2.1194459530e-04    2.0693852838e-04 
  260.000000    4.3549425028e-04    2.1189448760e-04    2.0693951109e-04 
  261.000000    4.5814912302e-04    2.1183839372e-04    2.0693024516e-04 
  262.000000    4.7504391115e-04    2.1177712913e-04    2.0690955506e-04 
  263.000000    4.8545656320e-04    2.1171382671e-04    2.0687500472e-04 
  264.000000    4.8877704832e-04    2.1164829569e-04    2.0683105794e-04 
  265.000000    4.8498266553e-04    2.1158410071e-04    2.0678132358e-04 
  266.000000    4.7432704015e-04    2.1152196346e-04    2.0673254329e-04 
  267.000000    4.5745883837e-04    2.1146191305e-04    2.0668981114e-04 
  268.000000    4.3525366347e-04    2.1140514557e-04    2.0665743358e-04 
