
  &&electric field in cartesian unit:  1.000000e-03  0.000000e+00  0.000000e+00 
  &&electric field in crystal unit:  1.000000e-03  0.000000e+00  0.000000e+00 
  0.000000   -5.9069033855e-06   -1.5065764055e-10    1.1382437466e-10 
  0.200000   -6.3325930116e-06   -1.6973970863e-10    1.0378769580e-10 
  0.400000   -6.7421796557e-06   -1.8948446644e-10    9.0160283029e-11 
  0.600000   -7.1245769026e-06   -2.0811952079e-10    7.4249727950e-11 
  0.800000   -7.4717040084e-06   -2.2409456070e-10    5.7325705316e-11 
  1.000000   -7.7777707599e-06   -2.3603879752e-10    4.0942324077e-11 
  1.200000   -8.0395765487e-06   -2.4300955525e-10    2.6523983211e-11 
  1.400000   -8.2566163419e-06   -2.4432638418e-10    1.5279984236e-11 
  1.600000   -8.4308791571e-06   -2.3998298616e-10    8.2879087200e-12 
  1.800000   -8.5666480489e-06   -2.3040802798e-10    6.0910948334e-12 
  2.000000   -8.6698916479e-06   -2.1647948289e-10    8.9750915148e-12 
  2.200000   -8.7478037317e-06   -1.9939150271e-10    1.6702149701e-11 
  2.400000   -8.8081143855e-06   -1.8060746738e-10    2.8676834990e-11 
  2.600000   -8.8585352584e-06   -1.6162380931e-10    4.4089859086e-11 
  2.800000   -8.9061414218e-06   -1.4411212476e-10    6.1600071034e-11 
  3.000000   -8.9569619413e-06   -1.2955150258e-10    7.9732531153e-11 
  3.200000   -9.0156417653e-06   -1.1904641239e-10    9.6955339876e-11 
  3.400000   -9.0852720082e-06   -1.1354449954e-10    1.1201344032e-10 
  3.600000   -9.1673407488e-06   -1.1333000884e-10    1.2356144469e-10 
  3.800000   -9.2618411129e-06   -1.1828485517e-10    1.3066071965e-10 
  4.000000   -9.3675088977e-06   -1.2800543546e-10    1.3269476385e-10 
  4.200000   -9.4821009752e-06   -1.4161017083e-10    1.2933104283e-10 
  4.400000   -9.6027228638e-06   -1.5803790323e-10    1.2097556791e-10 
  4.600000   -9.7261635194e-06   -1.7571537767e-10    1.0829187191e-10 
  4.800000   -9.8492174411e-06   -1.9315583629e-10    9.2246534786e-11 
  5.000000   -9.9689880919e-06   -2.0893172102e-10    7.4165304860e-11 
  5.200000   -1.0083032384e-05   -2.2177242118e-10    5.5600618216e-11 
  5.400000   -1.0189532434e-05   -2.3049401961e-10    3.8005471480e-11 
  5.600000   -1.0287309963e-05   -2.3443422469e-10    2.2985252037e-11 
  5.800000   -1.0375820992e-05   -2.3327726948e-10    1.1739773595e-11 
  6.000000   -1.0455045904e-05   -2.2709712977e-10    5.3823644735e-12 
  6.200000   -1.0525457389e-05   -2.1653552953e-10    4.4114981338e-12 
  6.400000   -1.0587823423e-05   -2.0234212894e-10    9.0144654329e-12 
  6.600000   -1.0643125308e-05   -1.8571560342e-10    1.8889470204e-11 
  6.800000   -1.0692442533e-05   -1.6804352001e-10    3.3182486576e-11 
  7.000000   -1.0736828576e-05   -1.5088296024e-10    5.0828807710e-11 
  7.200000   -1.0777253743e-05   -1.3560001074e-10    7.0362956741e-11 
  7.400000   -1.0814536874e-05   -1.2331109412e-10    9.0151681830e-11 
  7.600000   -1.0849407622e-05   -1.1504578334e-10    1.0865611618e-10 
  7.800000   -1.0882413778e-05   -1.1165155706e-10    1.2414265127e-10 
  8.000000   -1.0913948450e-05   -1.1324734972e-10    1.3540435561e-10 
  8.200000   -1.0944283757e-05   -1.1976848048e-10    1.4128002623e-10 
  8.400000   -1.0973586558e-05   -1.3055219312e-10    1.4135743571e-10 
  8.600000   -1.1001865139e-05   -1.4477311900e-10    1.3541675718e-10 
  8.800000   -1.1029080897e-05   -1.6125571891e-10    1.2390137345e-10 
  9.000000   -1.1055115424e-05   -1.7883111350e-10    1.0779311234e-10 
  9.200000   -1.1079759331e-05   -1.9589638708e-10    8.8329576988e-11 
  9.400000   -1.1102745491e-05   -2.1106630086e-10    6.7035082180e-11 
  9.600000   -1.1123822765e-05   -2.2314000457e-10    4.5816279309e-11 
  9.800000   -1.1142735986e-05   -2.3125307416e-10    2.6326757867e-11 
  10.000000   -1.1159310271e-05   -2.3470352683e-10    1.0388571605e-11 
  10.200000   -1.1173498206e-05   -2.3314698539e-10   -6.9340612193e-13 
  10.400000   -1.1185372267e-05   -2.2686061791e-10   -5.9293985249e-12 
  10.600000   -1.1195175293e-05   -2.1643833346e-10   -4.8328207464e-12 
  10.800000   -1.1203401660e-05   -2.0278174088e-10    2.8855146180e-12 
  11.000000   -1.1210717575e-05   -1.8700694638e-10    1.6512509091e-11 
  11.200000   -1.1217959208e-05   -1.7035028179e-10    3.4939599787e-11 
  11.400000   -1.1226036757e-05   -1.5416041215e-10    5.6734224123e-11 
  11.600000   -1.1235840089e-05   -1.3980679138e-10    8.0209289329e-11 
  11.800000   -1.1248216777e-05   -1.2853311847e-10    1.0328357213e-10 
  12.000000   -1.1263690447e-05   -1.2105782957e-10    1.2417693808e-10 
  12.200000   -1.1282470964e-05   -1.1790994901e-10    1.4098866731e-10 
  12.400000   -1.1304296798e-05   -1.1941868096e-10    1.5233047609e-10 
  12.600000   -1.1328345760e-05   -1.2522115691e-10    1.5727193834e-10 
  12.800000   -1.1353183213e-05   -1.3479759410e-10    1.5536491747e-10 
  13.000000   -1.1376858519e-05   -1.4717398403e-10    1.4652889803e-10 
  13.200000   -1.1396875779e-05   -1.6123299129e-10    1.3154943162e-10 
  13.400000   -1.1410389962e-05   -1.7588903312e-10    1.1176928369e-10 
  13.600000   -1.1414342194e-05   -1.8983694839e-10    8.8748185712e-11 
  13.800000   -1.1405683659e-05   -2.0191790847e-10    6.4445761843e-11 
  14.000000   -1.1381631008e-05   -2.1124173664e-10    4.0920247170e-11 
  14.200000   -1.1339902707e-05   -2.1710428598e-10    2.0185892374e-11 
  14.400000   -1.1278902939e-05   -2.1918339589e-10    3.9437200147e-12 
  14.600000   -1.1197952756e-05   -2.1735441866e-10   -6.3520176849e-12 
  14.800000   -1.1097365688e-05   -2.1189710672e-10   -9.8309738850e-12 
  15.000000   -1.0978514316e-05   -2.0339075393e-10   -6.1605377012e-12 
  15.200000   -1.0843801852e-05   -1.9275823032e-10    4.3601644503e-12 
  15.400000   -1.0696522827e-05   -1.8093063356e-10    2.0861464653e-11 
  15.600000   -1.0540685329e-05   -1.6901031645e-10    4.1926595502e-11 
  15.800000   -1.0380726318e-05   -1.5803554181e-10    6.5784243836e-11 
  16.000000   -1.0221221567e-05   -1.4885620902e-10    9.0366465329e-11 
  16.200000   -1.0066561825e-05   -1.4227960167e-10    1.1358818023e-10 
  16.400000   -9.9206180039e-06   -1.3869286602e-10    1.3344431701e-10 
  16.600000   -9.7864445694e-06   -1.3825030324e-10    1.4821250791e-10 
  16.800000   -9.6660817726e-06   -1.4091968463e-10    1.5668233734e-10 
  17.000000   -9.5603486870e-06   -1.4636875593e-10    1.5809121759e-10 
  17.200000   -9.4688137986e-06   -1.5397298578e-10    1.5231426534e-10 
  17.400000   -9.3898226444e-06   -1.6285295146e-10    1.3986191106e-10 
  17.600000   -9.3206148663e-06   -1.7227756148e-10    1.2174321020e-10 
  17.800000   -9.2575709146e-06   -1.8132834589e-10    9.9523150533e-11 
  18.000000   -9.1964867474e-06   -1.8922069391e-10    7.5114549327e-11 
  18.200000   -9.1328979390e-06   -1.9529293877e-10    5.0548153158e-11 
  18.400000   -9.0624201595e-06   -1.9913001321e-10    2.7916777601e-11 
  18.600000   -8.9811455352e-06   -2.0051086429e-10    9.1248810639e-12 
  18.800000   -8.8859041045e-06   -1.9938616464e-10   -4.2269487869e-12 
  19.000000   -8.7745471811e-06   -1.9596703720e-10   -1.1159895878e-11 
  19.200000   -8.6460506842e-06   -1.9067239781e-10   -1.1066253416e-11 
  19.400000   -8.5006314309e-06   -1.8393138468e-10   -3.9544058395e-12 
  19.600000   -8.3396767933e-06   -1.7662551337e-10    9.4742501124e-12 
  19.800000   -8.1656748993e-06   -1.6932421163e-10    2.8086582481e-11 
  20.000000   -7.9819893256e-06   -1.6271147036e-10    5.0323429736e-11 
  20.200000   -7.7925883711e-06   -1.5734392995e-10    7.4308252471e-11 
  20.400000   -7.6017234448e-06   -1.5374012872e-10    9.8074645208e-11 
  20.600000   -7.4136301373e-06   -1.5214457580e-10    1.1965426975e-10 
  20.800000   -7.2321979038e-06   -1.5272104570e-10    1.3736133680e-10 
  21.000000   -7.0607531934e-06   -1.5526664850e-10    1.4971206274e-10 
  21.200000   -6.9017858251e-06   -1.5956073060e-10    1.5589395142e-10 
  21.400000   -6.7568188215e-06   -1.6520468200e-10    1.5545523974e-10 
  21.600000   -6.6263734002e-06   -1.7173407507e-10    1.4853450053e-10 
  21.800000   -6.5099644669e-06   -1.7843977021e-10    1.3588376191e-10 
  22.000000   -6.4061954768e-06   -1.8471432947e-10    1.1855032880e-10 
  22.200000   -6.3129176067e-06   -1.8993609484e-10    9.8031733521e-11 
  22.400000   -6.2274142015e-06   -1.9375207014e-10    7.6085333949e-11 
  22.600000   -6.1466554458e-06   -1.9568369343e-10    5.4482985898e-11 
  22.800000   -6.0675317255e-06   -1.9540590089e-10    3.4942541159e-11 
  23.000000   -5.9870841100e-06   -1.9295296362e-10    1.8966623118e-11 
  23.200000   -5.9027053255e-06   -1.8849934113e-10    7.8098613269e-12 
  23.400000   -5.8123159616e-06   -1.8231836271e-10    2.2096284808e-12 
  23.600000   -5.7144648129e-06   -1.7477103396e-10    2.4480679279e-12 
  23.800000   -5.6083908344e-06   -1.6647001731e-10    8.3644836933e-12 
  24.000000   -5.4940367769e-06   -1.5800980091e-10    1.9345421948e-11 
  24.200000   -5.3719919226e-06   -1.5028430966e-10    3.4325269447e-11 
  24.400000   -5.2434269311e-06   -1.4394368584e-10    5.2053146368e-11 
  24.600000   -5.1099222471e-06   -1.3950225501e-10    7.0946048166e-11 
  24.800000   -4.9733530931e-06   -1.3746333196e-10    8.9526186444e-11 
  25.000000   -4.8357619358e-06   -1.3823291213e-10    1.0629971025e-10 
  25.200000   -4.6991333234e-06   -1.4188222929e-10    1.1992049766e-10 
  25.400000   -4.5652882427e-06   -1.4840483304e-10    1.2947387721e-10 
  25.600000   -4.4357483661e-06   -1.5734770826e-10    1.3415854304e-10 
  25.800000   -4.3116131246e-06   -1.6821646324e-10    1.3385609779e-10 
  26.000000   -4.1935106885e-06   -1.8028059924e-10    1.2868351837e-10 
  26.200000   -4.0815677957e-06   -1.9272211386e-10    1.1913937388e-10 
  26.400000   -3.9754143580e-06   -2.0450028588e-10    1.0619365918e-10 
  26.600000   -3.8742027850e-06   -2.1458239217e-10    9.0871756658e-11 
  26.800000   -3.7767179281e-06   -2.2210172246e-10    7.4528039864e-11 
  27.000000   -3.6814637306e-06   -2.2633190663e-10    5.8460146875e-11 
  27.200000   -3.5867981500e-06   -2.2674134807e-10    4.3929884784e-11 
  27.400000   -3.4911132936e-06   -2.2297045853e-10    3.2066520903e-11 
  27.600000   -3.3929848503e-06   -2.1512599263e-10    2.3749452780e-11 
  27.800000   -3.2913225525e-06   -2.0363077707e-10    1.9642902675e-11 
  28.000000   -3.1855350470e-06   -1.8918434823e-10    1.9950119583e-11 
  28.200000   -3.0756495865e-06   -1.7274214821e-10    2.4566255023e-11 
  28.400000   -2.9623835859e-06   -1.5542523454e-10    3.3079906465e-11 
  28.600000   -2.8472265673e-06   -1.3872811669e-10    4.4725953543e-11 
  28.800000   -2.7324000915e-06   -1.2392940633e-10    5.8531987222e-11 
  29.000000   -2.6208168462e-06   -1.1233721316e-10    7.3465137477e-11 
  29.200000   -2.5159610311e-06   -1.0499183893e-10    8.8272041835e-11 
  29.400000   -2.4216293636e-06   -1.0264997141e-10    1.0186195889e-10 
  29.600000   -2.3418242159e-06   -1.0577867733e-10    1.1319852967e-10 
  29.800000   -2.2804410713e-06   -1.1427831560e-10    1.2143193179e-10 
  30.000000   -2.2410274066e-06   -1.2771480916e-10    1.2588586500e-10 
  30.200000   -2.2264549574e-06   -1.4513224857e-10    1.2627265627e-10 
  30.400000   -2.2386927332e-06   -1.6531833535e-10    1.2265372134e-10 
  30.600000   -2.2785939905e-06   -1.8672736719e-10    1.1531627310e-10 
  30.800000   -2.3457644885e-06   -2.0773166736e-10    1.0480847536e-10 
  31.000000   -2.4384684522e-06   -2.2656204367e-10    9.2018842066e-11 
  31.200000   -2.5536453866e-06   -2.4156027492e-10    7.7832350893e-11 
  31.400000   -2.6869822086e-06   -2.5150352680e-10    6.3393155516e-11 
  31.600000   -2.8331293980e-06   -2.5542602432e-10    4.9776352450e-11 
  31.800000   -2.9859381983e-06   -2.5289765876e-10    3.7955430966e-11 
  32.000000   -3.1388092416e-06   -2.4399118981e-10    2.8796107179e-11 
  32.200000   -3.2850551649e-06   -2.2929411721e-10    2.2904835248e-11 
  32.400000   -3.4182821080e-06   -2.0991996226e-10    2.0789484240e-11 
  32.600000   -3.5327847148e-06   -1.8735740009e-10    2.2525099994e-11 
  32.800000   -3.6238740080e-06   -1.6339528052e-10    2.7931660641e-11 
  33.000000   -3.6881551025e-06   -1.3987297819e-10    3.6567213251e-11 
  33.200000   -3.7237592418e-06   -1.1888198578e-10    4.7717689603e-11 
  33.400000   -3.7304244700e-06   -1.0207995355e-10    6.0531140394e-11 
  33.600000   -3.7094948635e-06   -9.0869805234e-11    7.4021878471e-11 
  33.800000   -3.6638247827e-06   -8.6210623891e-11    8.7152682799e-11 
  34.000000   -3.5975406256e-06   -8.8495224110e-11    9.8953308858e-11 
  34.200000   -3.5157573132e-06   -9.7605438151e-11    1.0856663030e-10 
  34.400000   -3.4242645006e-06   -1.1277140456e-10    1.1529012530e-10 
  34.600000   -3.3291086671e-06   -1.3272940428e-10    1.1857388879e-10 
  34.800000   -3.2361736597e-06   -1.5588549990e-10    1.1825419349e-10 
  35.000000   -3.1508484066e-06   -1.8030891645e-10    1.1441328055e-10 
  35.200000   -3.0776685843e-06   -2.0400100199e-10    1.0740187648e-10 
  35.400000   -3.0200602023e-06   -2.2510811439e-10    9.7775923820e-11 
  35.600000   -2.9802106285e-06   -2.4185646286e-10    8.6388688945e-11 
  35.800000   -2.9589686424e-06   -2.5287744215e-10    7.4054999813e-11 
  36.000000   -2.9558595995e-06   -2.5739557945e-10    6.1808941061e-11 
  36.200000   -2.9692428250e-06   -2.5513913237e-10    5.0652609202e-11 
  36.400000   -2.9964749475e-06   -2.4642214884e-10    4.1420663029e-11 
  36.600000   -3.0341855616e-06   -2.3207746877e-10    3.4810872161e-11 
  36.800000   -3.0785577732e-06   -2.1340976515e-10    3.1335832874e-11 
  37.000000   -3.1256458374e-06   -1.9206438834e-10    3.1255911047e-11 
  37.200000   -3.1716249967e-06   -1.6986297331e-10    3.4568694099e-11 
  37.400000   -3.2130764088e-06   -1.4869182469e-10    4.0991617438e-11 
  37.600000   -3.2471719494e-06   -1.3022424147e-10    4.9996204162e-11 
  37.800000   -3.2718341935e-06   -1.1609656221e-10    6.0839380932e-11 
  38.000000   -3.2857611707e-06   -1.0730628178e-10    7.2653450710e-11 
  38.200000   -3.2884390621e-06   -1.0446802244e-10    8.4483743504e-11 
  38.400000   -3.2800717741e-06   -1.0766329286e-10    9.5371310955e-11 
  38.600000   -3.2614711808e-06   -1.1643809362e-10    1.0443946578e-10 
  38.800000   -3.2338711511e-06   -1.2995791111e-10    1.1092247415e-10 
  39.000000   -3.1987737896e-06   -1.4690214071e-10    1.1431375119e-10 
  39.200000   -3.1577823977e-06   -1.6564035093e-10    1.1421982354e-10 
  39.400000   -3.1124041502e-06   -1.8457461781e-10    1.1062853250e-10 
  39.600000   -3.0639456470e-06   -2.0202277423e-10    1.0377367225e-10 
  39.800000   -3.0133774900e-06   -2.1649908557e-10    9.4158251493e-11 
  40.000000   -2.9612742119e-06   -2.2685213537e-10    8.2477725798e-11 
  40.200000   -2.9078081863e-06   -2.3230306268e-10    6.9635109446e-11 
  40.400000   -2.8526989434e-06   -2.3244150083e-10    5.6538945329e-11 
  40.600000   -2.7953076226e-06   -2.2742776503e-10    4.4252951527e-11 
  40.800000   -2.7346862106e-06   -2.1778864027e-10    3.3758251908e-11 
  41.000000   -2.6696751584e-06   -2.0449288468e-10    2.5896755167e-11 
  41.200000   -2.5989802672e-06   -1.8881007597e-10    2.1316588482e-11 
  41.400000   -2.5212759450e-06   -1.7216644591e-10    2.0421594424e-11 
  41.600000   -2.4353051871e-06   -1.5605887937e-10    2.3363928062e-11 
  41.800000   -2.3399644096e-06   -1.4189949547e-10    3.0006810971e-11 
  42.000000   -2.2343904481e-06   -1.3090290886e-10    3.9906414500e-11 
  42.200000   -2.1179986285e-06   -1.2392033955e-10    5.2371845182e-11 
  42.400000   -1.9906052547e-06   -1.2166047892e-10    6.6447675267e-11 
  42.600000   -1.8524250928e-06   -1.2416173937e-10    8.1169762456e-11 
  42.800000   -1.7040900016e-06   -1.3115262975e-10    9.5376877428e-11 
  43.000000   -1.5466655053e-06   -1.4199276506e-10    1.0795159184e-10 
  43.200000   -1.3816412785e-06   -1.5570249742e-10    1.1786923779e-10 
  43.400000   -1.2109135921e-06   -1.7102816530e-10    1.2432945768e-10 
  43.600000   -1.0366841192e-06   -1.8672970173e-10    1.2678481366e-10 
  43.800000   -8.6143751693e-07   -2.0129043403e-10    1.2492586624e-10 
  44.000000   -6.8777946099e-07   -2.1356844954e-10    1.1881799968e-10 
  44.200000   -5.1834470960e-07   -2.2250870672e-10    1.0884764530e-10 
  44.400000   -3.5564544720e-07   -2.2734904940e-10    9.5721421606e-11 
  44.600000   -2.0198643252e-07   -2.2771254742e-10    8.0421893421e-11 
  44.800000   -5.9282000753e-08   -2.2357451625e-10    6.4102648616e-11 
  45.000000    7.1027945747e-08   -2.1535838095e-10    4.8052237773e-11 
  45.200000    1.8811851205e-07   -2.0378876386e-10    3.3536973677e-11 
  45.400000    2.9181506978e-07   -1.8985844677e-10    2.1769651054e-11 
  45.600000    3.8258229834e-07   -1.7464623566e-10    1.3728429971e-11 
  45.800000    4.6144653965e-07   -1.5960153243e-10    1.0139950488e-11 
  46.000000    5.3001741140e-07   -1.4587465396e-10    1.1375155562e-11 
  46.200000    5.9030121768e-07   -1.3476042170e-10    1.7402158211e-11 
  46.400000    6.4457037213e-07   -1.2711153750e-10    2.7841742534e-11 
  46.600000    6.9516526047e-07   -1.2357182548e-10    4.1908073412e-11 
  46.800000    7.4434779401e-07   -1.2434743736e-10    5.8506878531e-11 
  47.000000    7.9406133974e-07   -1.2947145332e-10    7.6292619646e-11 
  47.200000    8.4581222276e-07   -1.3842526635e-10    9.3857075571e-11 
  47.400000    9.0055720015e-07   -1.5043180563e-10    1.0971734012e-10 
  47.600000    9.5862408001e-07   -1.6447070964e-10    1.2250688261e-10 
  47.800000    1.0197083050e-06   -1.7936035568e-10    1.3107949464e-10 
  48.000000    1.0828798210e-06   -1.9384574313e-10    1.3462329740e-10 
  48.200000    1.1466848129e-06   -2.0680882246e-10    1.3276170568e-10 
  48.400000    1.2092655066e-06   -2.1699279928e-10    1.2550803790e-10 
  48.600000    1.2685074574e-06   -2.2368815650e-10    1.1338657506e-10 
  48.800000    1.3222075406e-06   -2.2633464596e-10    9.7302831511e-11 
  49.000000    1.3682497375e-06   -2.2474152943e-10    7.8527569224e-11 
  49.200000    1.4047249765e-06   -2.1908434669e-10    5.8600044334e-11 
  49.400000    1.4300467119e-06   -2.0981342879e-10    3.9167617894e-11 
  49.600000    1.4430382317e-06   -1.9783258254e-10    2.1919585832e-11 
  49.800000    1.4429465591e-06   -1.8414778049e-10    8.3346572620e-12 
  50.000000    1.4294557378e-06   -1.6991152721e-10   -3.4297737920e-13 
  50.200000    1.4026272857e-06   -1.5620868563e-10   -3.2733443767e-12 
  50.400000    1.3627563570e-06   -1.4431063237e-10   -9.9948140750e-14 
  50.600000    1.3103656283e-06   -1.3506493807e-10    9.0502945042e-12 
  50.800000    1.2460305668e-06   -1.2932360917e-10    2.3500996287e-11 
  51.000000    1.1702978421e-06   -1.2743775921e-10    4.2160978007e-11 
  51.200000    1.0836449452e-06   -1.2944366973e-10    6.3545133914e-11 
  51.400000    9.8637253959e-07   -1.3508769598e-10    8.5904913197e-11 
  51.600000    8.7856335457e-07   -1.4380564673e-10    1.0737948929e-10 
  51.800000    7.6018296957e-07   -1.5477726749e-10    1.2619600878e-10 
  52.000000    6.3106985754e-07   -1.6701638718e-10    1.4074592272e-10 
  52.200000    4.9102494776e-07   -1.7947439767e-10    1.4974379330e-10 
  52.400000    3.3991424547e-07   -1.9108179547e-10    1.5238652999e-10 
  52.600000    1.7772666405e-07   -2.0086316859e-10    1.4836263894e-10 
  52.800000    4.6925570651e-09   -2.0815516469e-10    1.3791311177e-10 
  53.000000   -1.7865901397e-07   -2.1229794547e-10    1.2188105037e-10 
  53.200000   -3.7145644372e-07   -2.1312855049e-10    1.0153744753e-10 
  53.400000   -5.7246857543e-07   -2.1077168844e-10    7.8531388112e-11 
  53.600000   -7.8012944410e-07   -2.0557178661e-10    5.4742416754e-11 
  53.800000   -9.9263280590e-07   -1.9813133739e-10    3.2119084243e-11 
  54.000000   -1.2079999666e-06   -1.8913903602e-10    1.2524686197e-11 
  54.200000   -1.4242180658e-06   -1.7962520397e-10   -2.3818236951e-12 
