
  &&electric field in cartesian unit:  1.000000e-03  0.000000e+00  0.000000e+00 
  &&electric field in crystal unit:  1.000000e-03  0.000000e+00  0.000000e+00 
  0.000000   -9.9265791509e-06    4.1344338595e-09   -1.9351305876e-10 
  0.200000   -9.9071980925e-06    4.1297225625e-09   -6.5619214165e-11 
  0.400000   -9.8789983013e-06    4.1002802629e-09    6.0015889748e-11 
  0.600000   -9.8405367602e-06    4.0467627683e-09    1.8103233232e-10 
  0.800000   -9.7905308752e-06    3.9704117222e-09    2.9447745414e-10 
  1.000000   -9.7278980808e-06    3.8724327631e-09    3.9894256468e-10 
  1.200000   -9.6517864296e-06    3.7550650972e-09    4.9106553635e-10 
  1.400000   -9.5615902942e-06    3.6203520762e-09    5.6953809275e-10 
  1.600000   -9.4569802930e-06    3.4709408467e-09    6.3271173985e-10 
  1.800000   -9.3379102699e-06    3.3095208841e-09    6.7983377854e-10 
  2.000000   -9.2046204103e-06    3.1393834142e-09    7.0918262172e-10 
  2.200000   -9.0576381461e-06    2.9636966859e-09    7.2046173647e-10 
  2.400000   -8.8977863359e-06    2.7857816726e-09    7.1300340898e-10 
  2.600000   -8.7261486232e-06    2.6091428781e-09    6.8687776321e-10 
  2.800000   -8.5440498760e-06    2.4370109020e-09    6.4240144564e-10 
  3.000000   -8.3530382816e-06    2.2725746742e-09    5.8084159465e-10 
  3.200000   -8.1548945452e-06    2.1191057422e-09    5.0303358946e-10 
  3.400000   -7.9515571537e-06    1.9795714514e-09    4.1043932192e-10 
  3.600000   -7.7450941430e-06    1.8566619304e-09    3.0454561027e-10 
  3.800000   -7.5376785807e-06    1.7525141887e-09    1.8679898715e-10 
  4.000000   -7.3315125318e-06    1.6693639522e-09    5.9794117369e-11 
  4.200000   -7.1288184607e-06    1.6090190494e-09   -7.3892771263e-11 
  4.400000   -6.9317876235e-06    1.5725003354e-09   -2.1196107619e-10 
  4.600000   -6.7425171121e-06    1.5608070567e-09   -3.5140257631e-10 
  4.800000   -6.5630038484e-06    1.5741756934e-09   -4.8956696687e-10 
  5.000000   -6.3951135187e-06    1.6125199674e-09   -6.2388352618e-10 
  5.200000   -6.2404932908e-06    1.6753283125e-09   -7.5139098613e-10 
  5.400000   -6.1005909936e-06    1.7614557063e-09   -8.6986213110e-10 
  5.600000   -5.9765802282e-06    1.8696726578e-09   -9.7688709664e-10 
  5.800000   -5.8693790729e-06    1.9980393328e-09   -1.0705840131e-09 
  6.000000   -5.7796225616e-06    2.1443005089e-09   -1.1488902756e-09 
  6.200000   -5.7076617685e-06    2.3063214274e-09   -1.2099930573e-09 
  6.400000   -5.6535482387e-06    2.4810621191e-09   -1.2525252342e-09 
  6.600000   -5.6170403190e-06    2.6654343973e-09   -1.2753860836e-09 
  6.800000   -5.5976059066e-06    2.8565375785e-09   -1.2783748136e-09 
  7.000000   -5.5944881004e-06    3.0507872988e-09   -1.2604489927e-09 
  7.200000   -5.6066296554e-06    3.2449241869e-09   -1.2224517453e-09 
  7.400000   -5.6327750884e-06    3.4357103601e-09   -1.1647501613e-09 
  7.600000   -5.6714786906e-06    3.6198443951e-09   -1.0878391664e-09 
  7.800000   -5.7211428594e-06    3.7942384508e-09   -9.9341271912e-10 
  8.000000   -5.7800310935e-06    3.9555580868e-09   -8.8312709716e-10 
  8.200000   -5.8463543851e-06    4.1012152536e-09   -7.5834948430e-10 
  8.400000   -5.9182752646e-06    4.2286714114e-09   -6.2220992903e-10 
  8.600000   -5.9939442972e-06    4.3358672921e-09   -4.7642246478e-10 
  8.800000   -6.0715695442e-06    4.4207283422e-09   -3.2352165019e-10 
  9.000000   -6.1494292982e-06    4.4821991102e-09   -1.6698594157e-10 
  9.200000   -6.2259171976e-06    4.5191232083e-09   -9.2908408159e-12 
  9.400000   -6.2995690344e-06    4.5309817270e-09    1.4677979404e-10 
  9.600000   -6.3691099323e-06    4.5177182230e-09    2.9824511254e-10 
  9.800000   -6.4334527899e-06    4.4798843896e-09    4.4302273669e-10 
  10.000000   -6.4917341742e-06    4.4180045377e-09    5.7724622660e-10 
  10.200000   -6.5433228710e-06    4.3329902142e-09    6.9958190972e-10 
  10.400000   -6.5878229114e-06    4.2269853490e-09    8.0661213726e-10 
  10.600000   -6.6250981438e-06    4.1016747928e-09    8.9679134716e-10 
  10.800000   -6.6552415190e-06    3.9593615345e-09    9.6779744776e-10 
  11.000000   -6.6785807133e-06    3.8029496283e-09    1.0186884033e-09 
  11.200000   -6.6956595428e-06    3.6351339134e-09    1.0481664244e-09 
  11.400000   -6.7072244516e-06    3.4588712737e-09    1.0559716685e-09 
  11.600000   -6.7142037696e-06    3.2769185029e-09    1.0416564249e-09 
  11.800000   -6.7176346500e-06    3.0930696350e-09    1.0051291835e-09 
  12.000000   -6.7186869990e-06    2.9102920447e-09    9.4704752130e-10 
  12.200000   -6.7186116764e-06    2.7317565268e-09    8.6839805220e-10 
  12.400000   -6.7187043313e-06    2.5605273226e-09    7.7059004194e-10 
  12.600000   -6.7202655656e-06    2.3996893793e-09    6.5531884979e-10 
  12.800000   -6.7245830851e-06    2.2519311129e-09    5.2445667846e-10 
  13.000000   -6.7328544407e-06    2.1196813979e-09    3.8009064866e-10 
  13.200000   -6.7461870626e-06    2.0051997583e-09    2.2539417055e-10 
  13.400000   -6.7655717410e-06    1.9104200989e-09    6.2846152405e-11 
  13.600000   -6.7918253882e-06    1.8368748571e-09   -1.0445997537e-10 
  13.800000   -6.8256070296e-06    1.7858596777e-09   -2.7353925573e-10 
  14.000000   -6.8673568908e-06    1.7580104630e-09   -4.4122280777e-10 
  14.200000   -6.9173015839e-06    1.7537797979e-09   -6.0435559233e-10 
  14.400000   -6.9754657741e-06    1.7732077667e-09   -7.6030637004e-10 
  14.600000   -7.0416476223e-06    1.8158752050e-09   -9.0590400284e-10 
  14.800000   -7.1153877433e-06    1.8807635278e-09   -1.0383798795e-09 
  15.000000   -7.1960228126e-06    1.9668297183e-09   -1.1556788458e-09 
  15.200000   -7.2826686596e-06    2.0724672341e-09   -1.2554305787e-09 
  15.400000   -7.3742801974e-06    2.1954485182e-09   -1.3355715996e-09 
  15.600000   -7.4696296296e-06    2.3341744981e-09   -1.3955868442e-09 
  15.800000   -7.5673477909e-06    2.4856865173e-09   -1.4328880922e-09 
  16.000000   -7.6659735094e-06    2.6476419453e-09   -1.4469587701e-09 
  16.200000   -7.7639107379e-06    2.8170849148e-09   -1.4382556952e-09 
  16.400000   -7.8595590582e-06    2.9911721899e-09   -1.4063561270e-09 
  16.600000   -7.9512935112e-06    3.1670212298e-09   -1.3515220581e-09 
  16.800000   -8.0375142180e-06    3.3415158526e-09   -1.2750737041e-09 
  17.000000   -8.1166682393e-06    3.5116727793e-09   -1.1780893265e-09 
  17.200000   -8.1873275311e-06    3.6746366550e-09   -1.0624519504e-09 
  17.400000   -8.2481505054e-06    3.8278029366e-09   -9.3014488594e-10 
  17.600000   -8.2979489682e-06    3.9686133425e-09   -7.8364532758e-10 
  17.800000   -8.3357348588e-06    4.0946344081e-09   -6.2549892082e-10 
  18.000000   -8.3607172063e-06    4.2038377565e-09   -4.5880350258e-10 
  18.200000   -8.3723162496e-06    4.2945202712e-09   -2.8618614457e-10 
  18.400000   -8.3701914719e-06    4.3652284638e-09   -1.1074855757e-10 
  18.600000   -8.3542397051e-06    4.4151237944e-09    6.4248979880e-11 
  18.800000   -8.3245722017e-06    4.4434467123e-09    2.3575053106e-10 
  19.000000   -8.2815575534e-06    4.4496995856e-09    4.0088124228e-10 
  19.200000   -8.2257862762e-06    4.4342232436e-09    5.5623768419e-10 
  19.400000   -8.1580689977e-06    4.3974026860e-09    6.9911046610e-10 
  19.600000   -8.0794073353e-06    4.3398963783e-09    8.2695668268e-10 
  19.800000   -7.9909848246e-06    4.2626887928e-09    9.3758878163e-10 
  20.000000   -7.8941347855e-06    4.1671849941e-09    1.0289629514e-09 
  20.200000   -7.7903139695e-06    4.0552081065e-09    1.0999122167e-09 
  20.400000   -7.6810698857e-06    3.9288869086e-09    1.1480712060e-09 
  20.600000   -7.5680209144e-06    3.7898850804e-09    1.1739110421e-09 
  20.800000   -7.4527770725e-06    3.6414194138e-09    1.1752627330e-09 
  21.000000   -7.3369752361e-06    3.4854428244e-09    1.1533330908e-09 
  21.200000   -7.2222079216e-06    3.3249292905e-09    1.1083182144e-09 
  21.400000   -7.1099827107e-06    3.1622601528e-09    1.0409023259e-09 
  21.600000   -7.0017140023e-06    3.0002863052e-09    9.5206460190e-10 
  21.800000   -6.8986891216e-06    2.8417426579e-09    8.4392514580e-10 
  22.000000   -6.8020436891e-06    2.6889175680e-09    7.1812766428e-10 
  22.200000   -6.7127413562e-06    2.5442931200e-09    5.7746036788e-10 
  22.400000   -6.6315518966e-06    2.4103764959e-09    4.2407861614e-10 
  22.600000   -6.5590642103e-06    2.2894104490e-09    2.6074309472e-10 
  22.800000   -6.4956383391e-06    2.1830653908e-09    9.0339931698e-11 
  23.000000   -6.4414543530e-06    2.0931175043e-09   -8.4002684558e-11 
  23.200000   -6.3964389846e-06    2.0208103086e-09   -2.5884481384e-10 
  23.400000   -6.3604149308e-06    1.9669204085e-09   -4.3134375963e-10 
  23.600000   -6.3329287170e-06    1.9323314483e-09   -5.9835501883e-10 
  23.800000   -6.3133840033e-06    1.9173230098e-09   -7.5707095616e-10 
  24.000000   -6.3010330922e-06    1.9222311351e-09   -9.0431349816e-10 
  24.200000   -6.2949875954e-06    1.9465990801e-09   -1.0378150547e-09 
  24.400000   -6.2942429466e-06    1.9898875579e-09   -1.1545123841e-09 
  24.600000   -6.2977394880e-06    2.0514101388e-09   -1.2534263789e-09 
  24.800000   -6.3043498194e-06    2.1297398393e-09   -1.3323073534e-09 
  25.000000   -6.3129188633e-06    2.2235816539e-09   -1.3898454691e-09 
  25.200000   -6.3222958656e-06    2.3310364916e-09   -1.4245431562e-09 
  25.400000   -6.3313591445e-06    2.4504303537e-09   -1.4365254486e-09 
  25.600000   -6.3390264650e-06    2.5797249310e-09   -1.4255877097e-09 
  25.800000   -6.3443250608e-06    2.7165608362e-09   -1.3916621546e-09 
  26.000000   -6.3463333133e-06    2.8588853324e-09   -1.3362813199e-09 
  26.200000   -6.3442702931e-06    3.0043942597e-09   -1.2605188695e-09 
  26.400000   -6.3374877799e-06    3.1507034492e-09   -1.1659529887e-09 
  26.600000   -6.3254810457e-06    3.2950176352e-09   -1.0533671795e-09 
  26.800000   -6.3078866971e-06    3.4350627856e-09   -9.2506996517e-10 
  27.000000   -6.2845216104e-06    3.5688147847e-09   -7.8357645739e-10 
  27.200000   -6.2553476298e-06    3.6940119092e-09   -6.3129107721e-10 
  27.400000   -6.2204820667e-06    3.8088625194e-09   -4.7116872019e-10 
  27.600000   -6.1801886393e-06    3.9114582400e-09   -3.0570386663e-10 
  27.800000   -6.1348815992e-06    4.0003591584e-09   -1.3842240300e-10 
  28.000000   -6.0850786274e-06    4.0741660645e-09    2.7898572342e-11 
  28.200000   -6.0314097498e-06    4.1315545038e-09    1.9031248770e-10 
  28.400000   -5.9746047851e-06    4.1720648200e-09    3.4590908451e-10 
  28.600000   -5.9154530120e-06    4.1951359200e-09    4.9194191488e-10 
  28.800000   -5.8548009373e-06    4.2005906157e-09    6.2591049070e-10 
  29.000000   -5.7935128754e-06    4.1882338808e-09    7.4561719966e-10 
  29.200000   -5.7324905271e-06    4.1587856663e-09    8.4882478557e-10 
  29.400000   -5.6725945158e-06    4.1127125814e-09    9.3386230287e-10 
  29.600000   -5.6146838024e-06    4.0507326615e-09    9.9919865575e-10 
  29.800000   -5.5595410027e-06    3.9740757996e-09    1.0432112929e-09 
  30.000000   -5.5079184689e-06    3.8837218042e-09    1.0658674463e-09 
  30.200000   -5.4604530464e-06    3.7816031682e-09    1.0667941634e-09 
  30.400000   -5.4177042789e-06    3.6691504489e-09    1.0462141673e-09 
  30.600000   -5.3801329759e-06    3.5487162715e-09    1.0047014702e-09 
  30.800000   -5.3480950183e-06    3.4219208852e-09    9.4301790867e-10 
  31.000000   -5.3218389753e-06    3.2905633320e-09    8.6265471372e-10 
  31.200000   -5.3015066607e-06    3.1569784367e-09    7.6477457653e-10 
  31.400000   -5.2871359281e-06    3.0232172226e-09    6.5157997876e-10 
  31.600000   -5.2786647615e-06    2.8915642427e-09    5.2470159504e-10 
  31.800000   -5.2759434918e-06    2.7640034733e-09    3.8681754290e-10 
  32.000000   -5.2787367639e-06    2.6423280112e-09    2.4017105084e-10 
  32.200000   -5.2867714097e-06    2.5283830191e-09    8.7674902034e-11 
  32.400000   -5.2996690985e-06    2.4241459608e-09   -6.7910818970e-11 
  32.600000   -5.3170693263e-06    2.3311828811e-09   -2.2424374792e-10 
  32.800000   -5.3385477073e-06    2.2504989416e-09   -3.7893113511e-10 
  33.000000   -5.3636940108e-06    2.1836172193e-09   -5.2803110862e-10 
  33.200000   -5.3920848417e-06    2.1313922417e-09   -6.7017999456e-10 
  33.400000   -5.4233164711e-06    2.0942176727e-09   -8.0241229400e-10 
  33.600000   -5.4570412423e-06    2.0727077685e-09   -9.2194140775e-10 
  33.800000   -5.4929426809e-06    2.0667875410e-09   -1.0266324784e-09 
  34.000000   -5.5307582439e-06    2.0765562979e-09   -1.1154301903e-09 
  34.200000   -5.5703087865e-06    2.1017400491e-09   -1.1868639374e-09 
  34.400000   -5.6114229950e-06    2.1412468537e-09   -1.2395261352e-09 
  34.600000   -5.6540400714e-06    2.1946322294e-09   -1.2728066027e-09 
  34.800000   -5.6981519506e-06    2.2609920464e-09   -1.2863492934e-09 
  35.000000   -5.7438407581e-06    2.3390171412e-09   -1.2799251428e-09 
  35.200000   -5.7911905305e-06    2.4273434645e-09   -1.2535564032e-09 
  35.400000   -5.8403812415e-06    2.5246351822e-09   -1.2083604851e-09 
  35.600000   -5.8916194272e-06    2.6292288987e-09   -1.1449370936e-09 
  35.800000   -5.9451392922e-06    2.7394556960e-09   -1.0645923732e-09 
  36.000000   -6.0011906542e-06    2.8534156839e-09   -9.6869647493e-10 
  36.200000   -6.0600252148e-06    2.9691128364e-09   -8.5961120130e-10 
  36.400000   -6.1218811753e-06    3.0845726103e-09   -7.3884960804e-10 
  36.600000   -6.1869687324e-06    3.1980077816e-09   -6.0845730330e-10 
  36.800000   -6.2554581613e-06    3.3077542605e-09   -4.7141635426e-10 
  37.000000   -6.3274553667e-06    3.4121215912e-09   -3.3037177660e-10 
  37.200000   -6.4030058564e-06    3.5095742480e-09   -1.8744667728e-10 
  37.400000   -6.4820604745e-06    3.5983838496e-09   -4.4594836635e-11 
  37.600000   -6.5645003275e-06    3.6771778570e-09    9.5260591233e-11 
  37.800000   -6.6501078782e-06    3.7446522276e-09    2.2937671912e-10 
  38.000000   -6.7385598725e-06    3.8005037871e-09    3.5551913273e-10 
  38.200000   -6.8294326682e-06    3.8434411229e-09    4.7208190532e-10 
  38.400000   -6.9222012469e-06    3.8729301180e-09    5.7650869153e-10 
  38.600000   -7.0162451706e-06    3.8885855230e-09    6.6708989808e-10 
  38.800000   -7.1108667443e-06    3.8904660948e-09    7.4348801256e-10 
  39.000000   -7.2052529149e-06    3.8787107111e-09    8.0304782699e-10 
  39.200000   -7.2985495221e-06    3.8536078874e-09    8.4515183876e-10 
  39.400000   -7.3898565319e-06    3.8156116986e-09    8.6974285677e-10 
  39.600000   -7.4782314134e-06    3.7655064801e-09    8.7629219384e-10 
  39.800000   -7.5627151094e-06    3.7044644030e-09    8.6479494516e-10 
  40.000000   -7.6423540314e-06    3.6339210853e-09    8.3498062476e-10 
  40.200000   -7.7162304939e-06    3.5542240340e-09    7.8843955220e-10 
  40.400000   -7.7834472176e-06    3.4670814043e-09    7.2603592651e-10 
  40.600000   -7.8431865208e-06    3.3736687959e-09    6.4866981178e-10 
  40.800000   -7.8947178798e-06    3.2760440638e-09    5.5762558164e-10 
  41.000000   -7.9374281424e-06    3.1759405847e-09    4.5420882391e-10 
  41.200000   -7.9708029637e-06    3.0745773206e-09    3.4078191500e-10 
  41.400000   -7.9944817681e-06    2.9736664760e-09    2.1948466790e-10 
  41.600000   -8.0082562736e-06    2.8750759228e-09    9.2310741578e-11 
  41.800000   -8.0120799708e-06    2.7802485731e-09   -3.8706585707e-11 
  42.000000   -8.0060762284e-06    2.6904526437e-09   -1.7084115015e-10 
  42.200000   -7.9905407991e-06    2.6069867332e-09   -3.0211117246e-10 
  42.400000   -7.9659436599e-06    2.5311599704e-09   -4.3018996775e-10 
  42.600000   -7.9329107449e-06    2.4643839265e-09   -5.5341483184e-10 
  42.800000   -7.8922612435e-06    2.4073692807e-09   -6.6930316949e-10 
  43.000000   -7.8449418863e-06    2.3611272930e-09   -7.7586296265e-10 
  43.200000   -7.7920525555e-06    2.3255125005e-09   -8.7148484407e-10 
  43.400000   -7.7347817116e-06    2.3015242381e-09   -9.5433685831e-10 
  43.600000   -7.6744609345e-06    2.2896547501e-09   -1.0238867354e-09 
  43.800000   -7.6124601257e-06    2.2895789181e-09   -1.0784938812e-09 
  44.000000   -7.5502320933e-06    2.3007794650e-09   -1.1171447273e-09 
  44.200000   -7.4892348597e-06    2.3227668769e-09   -1.1393281176e-09 
  44.400000   -7.4309581775e-06    2.3552310109e-09   -1.1450093749e-09 
  44.600000   -7.3768515973e-06    2.3975494830e-09   -1.1337603306e-09 
  44.800000   -7.3283179389e-06    2.4489627995e-09   -1.1062434765e-09 
  45.000000   -7.2866960602e-06    2.5084979460e-09   -1.0628919297e-09 
  45.200000   -7.2531967095e-06    2.5746204879e-09   -1.0048215699e-09 
  45.400000   -7.2289218974e-06    2.6458578799e-09   -9.3242272981e-10 
  45.600000   -7.2148338507e-06    2.7216228108e-09   -8.4730865896e-10 
  45.800000   -7.2117283890e-06    2.7999639542e-09   -7.5082682572e-10 
  46.000000   -7.2202299690e-06    2.8797639744e-09   -6.4469659576e-10 
  46.200000   -7.2407871894e-06    2.9598371889e-09   -5.3124954173e-10 
  46.400000   -7.2736481420e-06    3.0387540820e-09   -4.1193205606e-10 
  46.600000   -7.3188704178e-06    3.1152086965e-09   -2.8905069355e-10 
  46.800000   -7.3762974561e-06    3.1881347124e-09   -1.6432306435e-10 
  47.000000   -7.4456212781e-06    3.2564835766e-09   -4.0277646338e-11 
  47.200000   -7.5263367482e-06    3.3187328955e-09    8.1291804595e-11 
  47.400000   -7.6177739143e-06    3.3742595147e-09    1.9836266726e-10 
  47.600000   -7.7190998056e-06    3.4225734668e-09    3.0870942030e-10 
  47.800000   -7.8293496757e-06    3.4622672713e-09    4.1099407623e-10 
  48.000000   -7.9474315928e-06    3.4931552192e-09    5.0400904436e-10 
  48.200000   -8.0721761785e-06    3.5152882922e-09    5.8533360125e-10 
  48.400000   -8.2023458735e-06    3.5283416626e-09    6.5324469555e-10 
  48.600000   -8.3366557645e-06    3.5326108646e-09    7.0643837260e-10 
  48.800000   -8.4738011200e-06    3.5280889743e-09    7.4499491349e-10 
  49.000000   -8.6124844273e-06    3.5149797820e-09    7.6783858613e-10 
  49.200000   -8.7514725779e-06    3.4936941812e-09    7.7459843727e-10 
  49.400000   -8.8895275061e-06    3.4645211075e-09    7.6538581011e-10 
  49.600000   -9.0255180028e-06    3.4284190851e-09    7.4037576868e-10 
  49.800000   -9.1584125572e-06    3.3862675550e-09    6.9908892478e-10 
  50.000000   -9.2873041800e-06    3.3388930200e-09    6.4351997842e-10 
  50.200000   -9.4113929642e-06    3.2878497191e-09    5.7405593263e-10 
  50.400000   -9.5300325660e-06    3.2335993309e-09    4.9158925901e-10 
  50.600000   -9.6427421676e-06    3.1773042173e-09    3.9819568064e-10 
  50.800000   -9.7491502005e-06    3.1197089354e-09    2.9543643300e-10 
  51.000000   -9.8490730123e-06    3.0623818057e-09    1.8504302035e-10 
  51.200000   -9.9424882640e-06    3.0058754958e-09    6.8640223912e-11 
  51.400000   -1.0029510138e-05    2.9514516432e-09   -5.2119299907e-11 
  51.600000   -1.0110390131e-05    2.8999577617e-09   -1.7507519529e-10 
  51.800000   -1.0185506256e-05    2.8520939673e-09   -2.9809620968e-10 
  52.000000   -1.0255347559e-05    2.8087066837e-09   -4.1960012990e-10 
  52.200000   -1.0320498190e-05    2.7708195524e-09   -5.3711250958e-10 
  52.400000   -1.0381631238e-05    2.7388346559e-09   -6.4923477211e-10 
  52.600000   -1.0439446257e-05    2.7126307395e-09   -7.5322717674e-10 
  52.800000   -1.0494689271e-05    2.6926543300e-09   -8.4730524411e-10 
  53.000000   -1.0548133574e-05    2.6789714737e-09   -9.2936746824e-10 
  53.200000   -1.0600524760e-05    2.6717148685e-09   -9.9895466792e-10 
  53.400000   -1.0652603059e-05    2.6708580591e-09   -1.0544856233e-09 
  53.600000   -1.0705042320e-05    2.6761301021e-09   -1.0947551049e-09 
  53.800000   -1.0758463274e-05    2.6869733258e-09   -1.1195948365e-09 
  54.000000   -1.0813396093e-05    2.7028296068e-09   -1.1278070562e-09 
  54.200000   -1.0870288892e-05    2.7236639704e-09   -1.1200048390e-09 
