
  &&electric field in cartesian unit:  1.000000e-03  0.000000e+00  0.000000e+00 
  &&dipole at groud state:    3.0117086730e-07    1.9425466047e-07   -5.9875534435e-07 
  0.000000    2.1085175411e-03    2.5357894173e-07   -5.5288518185e-07 
  1.000000    5.9798986119e-03    2.5235720764e-07   -5.5441528662e-07 
  2.000000    8.8895365595e-03    2.5025128154e-07   -5.5696053309e-07 
  3.000000    1.0420618625e-02    2.4793234772e-07   -5.5971087248e-07 
  4.000000    1.0432863295e-02    2.4582198000e-07   -5.6149458580e-07 
  5.000000    9.0705581172e-03    2.4365083536e-07   -5.6180796444e-07 
  6.000000    6.7067883865e-03    2.4031473854e-07   -5.6144464283e-07 
  7.000000    3.8419716245e-03    2.3437251858e-07   -5.6218944392e-07 
  8.000000    9.8778016654e-04    2.2684452465e-07   -5.6451343481e-07 
  9.000000   -1.4353603921e-03    2.2037938077e-07   -5.6663980405e-07 
  10.000000   -3.1653649431e-03    2.1653463799e-07   -5.6704067996e-07 
  11.000000   -4.1210759941e-03    2.1707337466e-07   -5.6556736630e-07 
  12.000000   -4.3828502294e-03    2.2265551445e-07   -5.6275489173e-07 
  13.000000   -4.1430948138e-03    2.3140635210e-07   -5.5905270304e-07 
  14.000000   -3.6414380977e-03    2.4164005122e-07   -5.5459310973e-07 
  15.000000   -3.1011235700e-03    2.5323752897e-07   -5.4919490912e-07 
  16.000000   -2.6794169567e-03    2.6489055159e-07   -5.4405086956e-07 
  17.000000   -2.4405805778e-03    2.7506258517e-07   -5.4062428115e-07 
  18.000000   -2.3544806408e-03    2.8336531435e-07   -5.3931062352e-07 
  19.000000   -2.3184517790e-03    2.8956712539e-07   -5.3933217630e-07 
  20.000000   -2.1953387656e-03    2.9202725196e-07   -5.3936967228e-07 
  21.000000   -1.8574828453e-03    2.8896285556e-07   -5.3898735481e-07 
  22.000000   -1.2256333107e-03    2.8009484125e-07   -5.3878323187e-07 
  23.000000   -2.9368310077e-04    2.6628312558e-07   -5.3882730588e-07 
  24.000000    8.6597903138e-04    2.4922247118e-07   -5.3857370654e-07 
  25.000000    2.1164778052e-03    2.3157131383e-07   -5.3783312914e-07 
  26.000000    3.2852586513e-03    2.1645731012e-07   -5.3629748078e-07 
  27.000000    4.2002354672e-03    2.0649216974e-07   -5.3315128879e-07 
  28.000000    4.7246015655e-03    2.0269820638e-07   -5.2854248048e-07 
  29.000000    4.7826896053e-03    2.0485897290e-07   -5.2339371998e-07 
  30.000000    4.3718282222e-03    2.1261455487e-07   -5.1808461586e-07 
  31.000000    3.5585309496e-03    2.2464324173e-07   -5.1343104904e-07 
  32.000000    2.4608397185e-03    2.3925172735e-07   -5.1006547389e-07 
  33.000000    1.2214798969e-03    2.5514608972e-07   -5.0761779277e-07 
  34.000000   -2.1310715971e-05    2.7052694091e-07   -5.0582140686e-07 
  35.000000   -1.1579881297e-03    2.8424227606e-07   -5.0402443927e-07 
  36.000000   -2.1212530579e-03    2.9599222251e-07   -5.0136703791e-07 
  37.000000   -2.8858751448e-03    3.0495168612e-07   -4.9738001270e-07 
  38.000000   -3.4558423836e-03    3.1063856478e-07   -4.9175479037e-07 
  39.000000   -3.8440804982e-03    3.1381170734e-07   -4.8524333018e-07 
  40.000000   -4.0526018029e-03    3.1571770964e-07   -4.7839439545e-07 
  41.000000   -4.0610589789e-03    3.1715566218e-07   -4.7075484519e-07 
  42.000000   -3.8288636327e-03    3.1923121518e-07   -4.6269542624e-07 
  43.000000   -3.3111268541e-03    3.2298503508e-07   -4.5584351252e-07 
  44.000000   -2.4831889288e-03    3.3008781010e-07   -4.5075098754e-07 
  45.000000   -1.3646582165e-03    3.3993844739e-07   -4.4804469453e-07 
  46.000000   -3.3298280416e-05    3.4960679232e-07   -4.4778961414e-07 
  47.000000    1.3779260104e-03    3.5615067147e-07   -4.4805509567e-07 
  48.000000    2.7014270064e-03    3.5828820003e-07   -4.4662543856e-07 
  49.000000    3.7678637132e-03    3.5729544449e-07   -4.4389629435e-07 
  50.000000    4.4417660579e-03    3.5510130285e-07   -4.4058353832e-07 
  51.000000    4.6494264449e-03    3.5127470414e-07   -4.3663169313e-07 
  52.000000    4.3914743787e-03    3.4447312168e-07   -4.3288702199e-07 
  53.000000    3.7376018030e-03    3.3410412947e-07   -4.2995647446e-07 
  54.000000    2.8063274974e-03    3.2216262371e-07   -4.2737105997e-07 
  55.000000    1.7365708595e-03    3.1249232809e-07   -4.2523850407e-07 
  56.000000    6.5895134781e-04    3.0908247788e-07   -4.2274072958e-07 
  57.000000   -3.2626716967e-04    3.1472307400e-07   -4.1839265423e-07 
  58.000000   -1.1604108680e-03    3.2939416291e-07   -4.1248598723e-07 
  59.000000   -1.8260402280e-03    3.5069079457e-07   -4.0604951285e-07 
  60.000000   -2.3366277599e-03    3.7548428565e-07   -3.9958107074e-07 
  61.000000   -2.7199071280e-03    4.0061966527e-07   -3.9361135844e-07 
  62.000000   -2.9997126682e-03    4.2244801355e-07   -3.8872041942e-07 
  63.000000   -3.1813196816e-03    4.3736834151e-07   -3.8537720894e-07 
  64.000000   -3.2446263842e-03    4.4438816373e-07   -3.8494815004e-07 
  65.000000   -3.1474362660e-03    4.4520292119e-07   -3.8909599617e-07 
  66.000000   -2.8384680823e-03    4.4146228957e-07   -3.9731033024e-07 
  67.000000   -2.2768225668e-03    4.3455115060e-07   -4.0723568477e-07 
  68.000000   -1.4522537803e-03    4.2633372396e-07   -4.1634426667e-07 
  69.000000   -3.9993990364e-04    4.1924603879e-07   -4.2312644810e-07 
  70.000000    7.9537409031e-04    4.1524841139e-07   -4.2684796722e-07 
  71.000000    2.0078645469e-03    4.1399096627e-07   -4.2787282709e-07 
  72.000000    3.0900961660e-03    4.1363983227e-07   -4.2795266431e-07 
  73.000000    3.8990091105e-03    4.1226408858e-07   -4.2803998815e-07 
  74.000000    4.3222105611e-03    4.0868431932e-07   -4.2779169452e-07 
  75.000000    4.2985556004e-03    4.0331607129e-07   -4.2703750677e-07 
  76.000000    3.8288525657e-03    3.9756086925e-07   -4.2578175603e-07 
  77.000000    2.9750258496e-03    3.9216264254e-07   -4.2342791999e-07 
  78.000000    1.8485773562e-03    3.8802771918e-07   -4.1995600520e-07 
  79.000000    5.9118447503e-04    3.8641140328e-07   -4.1661386292e-07 
  80.000000   -6.4857796370e-04    3.8733322633e-07   -4.1447995028e-07 
  81.000000   -1.7378260019e-03    3.9061280983e-07   -4.1403965840e-07 
  82.000000   -2.5772681449e-03    3.9630691879e-07   -4.1543004688e-07 
  83.000000   -3.1114663229e-03    4.0291356392e-07   -4.1838790411e-07 
  84.000000   -3.3299830102e-03    4.0926293546e-07   -4.2255957449e-07 
  85.000000   -3.2601544737e-03    4.1553605961e-07   -4.2842571280e-07 
  86.000000   -2.9540547548e-03    4.2113167161e-07   -4.3603232075e-07 
  87.000000   -2.4735761995e-03    4.2476461453e-07   -4.4519084101e-07 
  88.000000   -1.8776830666e-03    4.2737563973e-07   -4.5511120600e-07 
  89.000000   -1.2149647608e-03    4.3075772594e-07   -4.6320299940e-07 
  90.000000   -5.2257535702e-04    4.3544816101e-07   -4.6743584725e-07 
  91.000000    1.6976471115e-04    4.4109655837e-07   -4.6809880978e-07 
  92.000000    8.3364641610e-04    4.4660169412e-07   -4.6687514956e-07 
  93.000000    1.4371897764e-03    4.5028663813e-07   -4.6498525468e-07 
  94.000000    1.9441417775e-03    4.5131825712e-07   -4.6209186548e-07 
  95.000000    2.3174753161e-03    4.4932593627e-07   -4.5879185572e-07 
  96.000000    2.5260095371e-03    4.4417434258e-07   -4.5654844028e-07 
  97.000000    2.5512023853e-03    4.3737457575e-07   -4.5601140874e-07 
  98.000000    2.3914260227e-03    4.3036601261e-07   -4.5645548997e-07 
  99.000000    2.0621768024e-03    4.2329851582e-07   -4.5623052485e-07 
  100.000000    1.5925246034e-03    4.1749836956e-07   -4.5511249828e-07 
  101.000000    1.0197704039e-03    4.1407078968e-07   -4.5383751533e-07 
  102.000000    3.8459312710e-04    4.1253116319e-07   -4.5228852060e-07 
  103.000000   -2.7178224006e-04    4.1327510942e-07   -4.5000727921e-07 
  104.000000   -9.0834868284e-04    4.1778860540e-07   -4.4715574626e-07 
  105.000000   -1.4841331102e-03    4.2694603599e-07   -4.4443770612e-07 
  106.000000   -1.9588258779e-03    4.3947602953e-07   -4.4206799902e-07 
  107.000000   -2.2953727824e-03    4.5235945616e-07   -4.4002556177e-07 
  108.000000   -2.4643101752e-03    4.6364731391e-07   -4.3826894943e-07 
  109.000000   -2.4486093638e-03    4.7260754644e-07   -4.3612115633e-07 
  110.000000   -2.2472463477e-03    4.7893878007e-07   -4.3291272172e-07 
  111.000000   -1.8761582888e-03    4.8336371059e-07   -4.2889162461e-07 
  112.000000   -1.3662453073e-03    4.8658764945e-07   -4.2529700031e-07 
  113.000000   -7.5908713616e-04    4.8798200838e-07   -4.2241706644e-07 
  114.000000   -1.0168002490e-04    4.8695971158e-07   -4.1930416362e-07 
  115.000000    5.5847688543e-04    4.8343589545e-07   -4.1594019384e-07 
  116.000000    1.1771636084e-03    4.7734081542e-07   -4.1306062831e-07 
  117.000000    1.7157177174e-03    4.6855352851e-07   -4.1203420298e-07 
  118.000000    2.1418554510e-03    4.5737197356e-07   -4.1303597376e-07 
  119.000000    2.4296130964e-03    4.4523465411e-07   -4.1476758469e-07 
  120.000000    2.5589017317e-03    4.3414245196e-07   -4.1601786397e-07 
  121.000000    2.5152816650e-03    4.2594428055e-07   -4.1566003377e-07 
  122.000000    2.2907517591e-03    4.2280842217e-07   -4.1292095192e-07 
  123.000000    1.8859946422e-03    4.2607362640e-07   -4.0757726635e-07 
  124.000000    1.3139090034e-03    4.3558775606e-07   -3.9988811078e-07 
  125.000000    6.0340752887e-04    4.4945720059e-07   -3.9136377149e-07 
  126.000000   -1.9830615432e-04    4.6427608329e-07   -3.8353537847e-07 
  127.000000   -1.0266863000e-03    4.7569858953e-07   -3.7685738494e-07 
  128.000000   -1.8051064705e-03    4.8039732617e-07   -3.7158566476e-07 
  129.000000   -2.4541950536e-03    4.7824656175e-07   -3.6865140001e-07 
  130.000000   -2.9033728988e-03    4.7124000609e-07   -3.6783835842e-07 
  131.000000   -3.1018652464e-03    4.6099858554e-07   -3.6731194443e-07 
  132.000000   -3.0264546883e-03    4.5085860411e-07   -3.6566326175e-07 
  133.000000   -2.6842572956e-03    4.4427979666e-07   -3.6205300735e-07 
  134.000000   -2.1102797238e-03    4.4170183502e-07   -3.5562690496e-07 
  135.000000   -1.3609707948e-03    4.4149364033e-07   -3.4727994215e-07 
  136.000000   -5.0579736754e-04    4.4289326045e-07   -3.3917651213e-07 
  137.000000    3.8117148962e-04    4.4662563654e-07   -3.3362744204e-07 
  138.000000    1.2283513105e-03    4.5209902863e-07   -3.3252282476e-07 
  139.000000    1.9717758213e-03    4.5651000195e-07   -3.3686793647e-07 
  140.000000    2.5584771974e-03    4.5747746447e-07   -3.4551356100e-07 
  141.000000    2.9485732252e-03    4.5418103994e-07   -3.5556329486e-07 
  142.000000    3.1163764572e-03    4.4704982408e-07   -3.6448622018e-07 
  143.000000    3.0508564793e-03    4.3706978108e-07   -3.7119099239e-07 
  144.000000    2.7556257937e-03    4.2537045903e-07   -3.7572328164e-07 
  145.000000    2.2485876558e-03    4.1235317740e-07   -3.7894134387e-07 
  146.000000    1.5613709574e-03    3.9893647481e-07   -3.8126442771e-07 
  147.000000    7.3853609588e-04    3.8579843897e-07   -3.8281602080e-07 
  148.000000   -1.6351032420e-04    3.7336948858e-07   -3.8404244054e-07 
  149.000000   -1.0782450686e-03    3.6321110371e-07   -3.8553647360e-07 
  150.000000   -1.9321398190e-03    3.5837473499e-07   -3.8713952755e-07 
  151.000000   -2.6496690336e-03    3.6118847421e-07   -3.8788748260e-07 
  152.000000   -3.1603153090e-03    3.7072363943e-07   -3.8661003634e-07 
  153.000000   -3.4070722981e-03    3.8549561341e-07   -3.8243291754e-07 
  154.000000   -3.3552165657e-03    4.0459933125e-07   -3.7565737092e-07 
  155.000000   -2.9994551710e-03    4.2640334575e-07   -3.6804228798e-07 
  156.000000   -2.3676608558e-03    4.4825283550e-07   -3.6144787191e-07 
  157.000000   -1.5198948048e-03    4.6716914405e-07   -3.5702287079e-07 
  158.000000   -5.4219963351e-04    4.8133203822e-07   -3.5596530957e-07 
  159.000000    4.6406346902e-04    4.8854891730e-07   -3.5903939344e-07 
  160.000000    1.3956361843e-03    4.8565089922e-07   -3.6524775641e-07 
  161.000000    2.1612644065e-03    4.7104861561e-07   -3.7325321897e-07 
  162.000000    2.6936404919e-03    4.4601728269e-07   -3.8174377950e-07 
  163.000000    2.9573628250e-03    4.1395340430e-07   -3.8963100948e-07 
  164.000000    2.9515962829e-03    3.7974656734e-07   -3.9648132090e-07 
  165.000000    2.7070445294e-03    3.4897116099e-07   -4.0202947934e-07 
  166.000000    2.2777067663e-03    3.2799587958e-07   -4.0642420711e-07 
  167.000000    1.7290108434e-03    3.2242479474e-07   -4.1011767370e-07 
  168.000000    1.1249518417e-03    3.3319744386e-07   -4.1387456160e-07 
  169.000000    5.1716683731e-04    3.5622435887e-07   -4.1893839098e-07 
  170.000000   -6.1369695697e-05    3.8483359477e-07   -4.2586493906e-07 
  171.000000   -5.9632882652e-04    4.1248763557e-07   -4.3414606942e-07 
  172.000000   -1.0858415247e-03    4.3467918729e-07   -4.4269488370e-07 
  173.000000   -1.5304027678e-03    4.4841079561e-07   -4.4982736113e-07 
  174.000000   -1.9224822104e-03    4.5296291410e-07   -4.5446590408e-07 
  175.000000   -2.2397765177e-03    4.5040115196e-07   -4.5697227175e-07 
  176.000000   -2.4451078674e-03    4.4428034457e-07   -4.5840337308e-07 
  177.000000   -2.4936827273e-03    4.3845049129e-07   -4.5904608738e-07 
  178.000000   -2.3458335178e-03    4.3518706432e-07   -4.5763886247e-07 
  179.000000   -1.9814733133e-03    4.3635774734e-07   -4.5250806952e-07 
  180.000000   -1.4114897706e-03    4.4440073350e-07   -4.4378097323e-07 
  181.000000   -6.8221467495e-04    4.5983930587e-07   -4.3387144373e-07 
  182.000000    1.2888565946e-04    4.8078369696e-07   -4.2501047094e-07 
  183.000000    9.2574611611e-04    5.0425045724e-07   -4.1857211494e-07 
  184.000000    1.6114295685e-03    5.2685135834e-07   -4.1531754053e-07 
  185.000000    2.1066045501e-03    5.4504845963e-07   -4.1494288464e-07 
  186.000000    2.3641843456e-03    5.5512480027e-07   -4.1690492907e-07 
  187.000000    2.3765913075e-03    5.5431981315e-07   -4.1998933734e-07 
  188.000000    2.1742277883e-03    5.4252468459e-07   -4.2298712624e-07 
  189.000000    1.8158256103e-03    5.2323688178e-07   -4.2584199270e-07 
  190.000000    1.3733066148e-03    5.0211515717e-07   -4.2893692950e-07 
  191.000000    9.1518146922e-04    4.8389476113e-07   -4.3293868237e-07 
  192.000000    4.9257711806e-04    4.7044532189e-07   -4.3963256384e-07 
  193.000000    1.3109655684e-04    4.6227931006e-07   -4.5077558991e-07 
  194.000000   -1.6982445615e-04    4.5951207132e-07   -4.6595809350e-07 
  195.000000   -4.3040319198e-04    4.6242294923e-07   -4.8230447033e-07 
  196.000000   -6.7906099770e-04    4.7177766842e-07   -4.9600916185e-07 
  197.000000   -9.3933277812e-04    4.8672990426e-07   -5.0375747822e-07 
  198.000000   -1.2188394137e-03    5.0342729230e-07   -5.0411566449e-07 
  199.000000   -1.5032851012e-03    5.1797616437e-07   -4.9691345782e-07 
  200.000000   -1.7570488246e-03    5.2929340531e-07   -4.8276944746e-07 
  201.000000   -1.9302893140e-03    5.3835899829e-07   -4.6402973267e-07 
  202.000000   -1.9707843745e-03    5.4601648388e-07   -4.4452049624e-07 
  203.000000   -1.8374936609e-03    5.5217934705e-07   -4.2858529824e-07 
  204.000000   -1.5124941282e-03    5.5726139875e-07   -4.1999670424e-07 
  205.000000   -1.0083315215e-03    5.6297772506e-07   -4.1974134913e-07 
  206.000000   -3.6883399331e-04    5.6923006688e-07   -4.2559876381e-07 
  207.000000    3.3697648020e-04    5.7448932165e-07   -4.3376336519e-07 
  208.000000    1.0266299464e-03    5.7754343970e-07   -4.4075053363e-07 
  209.000000    1.6189879047e-03    5.7676138973e-07   -4.4507737850e-07 
  210.000000    2.0487937140e-03    5.7091094290e-07   -4.4671143482e-07 
  211.000000    2.2775485275e-03    5.6020938742e-07   -4.4502326403e-07 
  212.000000    2.2981012262e-03    5.4648090082e-07   -4.4038116349e-07 
  213.000000    2.1319182546e-03    5.3269520411e-07   -4.3603516928e-07 
  214.000000    1.8199843897e-03    5.2186677529e-07   -4.3444650074e-07 
  215.000000    1.4101614811e-03    5.1506464646e-07   -4.3555745662e-07 
  216.000000    9.4484357708e-04    5.1215226294e-07   -4.3866937872e-07 
  217.000000    4.5286411109e-04    5.1324050575e-07   -4.4242434356e-07 
  218.000000   -5.1717290302e-05    5.1718402942e-07   -4.4544640946e-07 
  219.000000   -5.6368527670e-04    5.2105456248e-07   -4.4695887818e-07 
  220.000000   -1.0760001240e-03    5.2136943906e-07   -4.4635190869e-07 
  221.000000   -1.5687417742e-03    5.1548572916e-07   -4.4398793856e-07 
  222.000000   -2.0025258930e-03    5.0276861946e-07   -4.4134948088e-07 
  223.000000   -2.3200199242e-03    4.8616982507e-07   -4.4058102744e-07 
  224.000000   -2.4564680650e-03    4.7048263984e-07   -4.4424646298e-07 
  225.000000   -2.3568432673e-03    4.5877925679e-07   -4.5347145262e-07 
  226.000000   -1.9945975549e-03    4.5320355076e-07   -4.6647281869e-07 
  227.000000   -1.3859090648e-03    4.5630055489e-07   -4.7973493151e-07 
  228.000000   -5.9424524636e-04    4.7076295952e-07   -4.9011168198e-07 
  229.000000    2.7725157913e-04    4.9678618852e-07   -4.9535793572e-07 
  230.000000    1.1044096494e-03    5.3045664468e-07   -4.9417839094e-07 
  231.000000    1.7671690789e-03    5.6616192104e-07   -4.8684975602e-07 
  232.000000    2.1746691670e-03    5.9706821721e-07   -4.7510898136e-07 
  233.000000    2.2836609450e-03    6.1618989800e-07   -4.6149740436e-07 
  234.000000    2.1056755419e-03    6.1844824216e-07   -4.4925864119e-07 
  235.000000    1.7014380938e-03    6.0283394624e-07   -4.4158970775e-07 
  236.000000    1.1644526119e-03    5.7249096915e-07   -4.3943978593e-07 
  237.000000    5.9857987464e-04    5.3323550011e-07   -4.4182126011e-07 
  238.000000    9.5453535996e-05    4.9220927581e-07   -4.4691705722e-07 
  239.000000   -2.8284356297e-04    4.5566495426e-07   -4.5228354948e-07 
  240.000000   -5.1236499993e-04    4.2776001685e-07   -4.5550861947e-07 
  241.000000   -6.0629466475e-04    4.0967689376e-07   -4.5452832473e-07 
  242.000000   -6.0574045211e-04    4.0098126333e-07   -4.5033168518e-07 
  243.000000   -5.6534057560e-04    4.0112537214e-07   -4.4668589316e-07 
  244.000000   -5.3736309216e-04    4.0887023067e-07   -4.4582009384e-07 
  245.000000   -5.5781237128e-04    4.2093563385e-07   -4.4870012287e-07 
  246.000000   -6.3733995730e-04    4.3241568937e-07   -4.5526932419e-07 
  247.000000   -7.5871904477e-04    4.3965035950e-07   -4.6444055390e-07 
  248.000000   -8.8137329877e-04    4.4180020766e-07   -4.7445308492e-07 
  249.000000   -9.5209257930e-04    4.3944242113e-07   -4.8217046952e-07 
  250.000000   -9.1977674609e-04    4.3336469014e-07   -4.8541071839e-07 
  251.000000   -7.5076564145e-04    4.2554945010e-07   -4.8422487645e-07 
  252.000000   -4.4071369690e-04    4.2014794206e-07   -4.7942937406e-07 
  253.000000   -1.9733440960e-05    4.2074172941e-07   -4.7246688319e-07 
  254.000000    4.5107976223e-04    4.2746115407e-07   -4.6613449235e-07 
  255.000000    8.9154664010e-04    4.3884848490e-07   -4.6364035680e-07 
  256.000000    1.2201804134e-03    4.5252019267e-07   -4.6634464233e-07 
  257.000000    1.3734498593e-03    4.6428372798e-07   -4.7371654550e-07 
  258.000000    1.3215259577e-03    4.7104955335e-07   -4.8477122097e-07 
  259.000000    1.0762454342e-03    4.7233700785e-07   -4.9800887569e-07 
  260.000000    6.8900698193e-04    4.6807466323e-07   -5.1028683230e-07 
  261.000000    2.3895159322e-04    4.5765380039e-07   -5.1800400357e-07 
  262.000000   -1.8575875383e-04    4.4147768332e-07   -5.1931586552e-07 
  263.000000   -5.0874803639e-04    4.2050970127e-07   -5.1432768651e-07 
  264.000000   -6.8281847500e-04    3.9621332696e-07   -5.0394387456e-07 
  265.000000   -6.9929187724e-04    3.7171534519e-07   -4.9042977544e-07 
  266.000000   -5.8691412850e-04    3.5026528867e-07   -4.7729788329e-07 
  267.000000   -4.0086605827e-04    3.3378653328e-07   -4.6727597635e-07 
  268.000000   -2.0530475220e-04    3.2318752042e-07   -4.6116928118e-07 
